568
483
471
513
471
487
446
459
460
446
479
463
488
481
430
463
452
435
444
441
452
455
458
452
467
504
422
465
433
455
462
459
448
455
428
423
398
440
480
441
455
504
432
467
439
472
409
344
239
344
553
471
477
483
456
468
443
472
447
468
457
467
467
423
433
443
430
436
419
439
432
398
391
422
379
461
399
403
471
428
433
484
443
472
463
423
453
444
444
464
440
441
444
444
438
446
445
448
453
448
441
448
438
443
460
478
427
470
454
423
435
379
391
419
404
359
441
412
430
508
492
577
599
547
551
432
384
612
679
583
583
572
564
515
487
527
444
487
532
504
494
488
504
448
475
433
408
414
408
399
400
430
379
395
425
419
423
423
441
433
448
419
408
425
433
460
460
395
441
420
456
433
432
446
415
447
435
448
438
408
441
444
423
443
448
441
462
423
440
423
467
463
403
403
391
467
491
462
432
472
432
420
468
451
308
216
452
515
467
463
465
448
491
455
444
471
462
438
448
449
440
470
441
462
412
425
460
423
376
422
423
404
447
440
430
483
492
505
500
455
531
504
511
534
486
518
536
483
515
472
487
467
455
489
444
414
396
430
382
369
428
403
402
396
451
432
448
384
374
388
408
415
427
457
425
467
487
419
472
415
305
257
291
545
476
463
443
464
466
463
432
460
465
460
459
455
444
446
470
444
435
487
451
422
455
411
439
430
400
423
448
444
432
487
433
423
472
457
446
425
443
460
451
396
441
428
406
423
483
443
459
432
434
419
415
451
451
451
455
391
455
419
375
433
445
465
423
427
432
438
457
443
400
339
235
386
568
455
414
451
433
444
462
440
478
444
448
460
464
472
468
446
448
451
399
387
455
384
374
451
368
419
409
438
425
457
464
510
432
491
480
446
448
480
499
460
472
492
496
455
459
460
472
467
487
467
508
460
524
470
446
487
463
473
515
449
513
499
481
478
432
519
481
419
343
239
548
600
566
543
566
531
529
558
583
500
505
536
510
483
481
435
465
428
443
409
412
415
367
334
401
391
403
406
419
447
455
496
481
423
423
459
368
432
455
414
446
435
411
398
380
359
415
463
377
366
428
449
391
363
406
376
430
415
486
408
444
403
391
384
305
342
252
332
551
428
433
454
451
489
451
483
479
511
431
470
487
368
380
384
344
339
231
299
305
15
172
275
415
374
331
399
387
486
543
480
375
335
412
415
424
543
518
359
512
366
398
417
388
479
512
391
465
545
463
540
551
486
530
659
568
555
449
556
561
515
423
451
317
287
182
487
329
224
350
248
163
115
0
0
0
0
0
286
379
351
429
446
481
729
732
719
704
723
796
719
679
935
1021
1021
1021
1021
1021
1021
1021
1021
967
775
844
729
688
761
639
588
608
662
632
643
623
615
608
582
556
591
563
564
544
622
572
552
596
600
603
655
633
595
415
380
368
510
608
532
467
489
465
513
448
412
443
343
393
399
341
207
260
374
225
268
227
287
268
248
286
282
287
292
300
317
430
345
396
467
392
463
511
494
508
519
499
449
496
480
439
440
447
432
452
423
337
476
529
384
468
523
505
408
472
507
432
451
463
467
411
448
259
192
455
451
379
440
460
472
452
467
504
419
518
487
445
460
430
491
423
390
422
423
384
308
285
262
148
224
140
240
292
211
304
407
383
332
417
445
419
436
476
502
547
534
480
479
527
560
479
476
508
408
451
558
521
448
418
438
387
384
460
465
379
467
423
335
347
318
318
231
237
313
527
524
452
428
496
520
432
448
536
608
575
614
547
591
634
515
542
560
500
547
583
454
428
455
499
502
598
684
631
673
707
647
673
719
647
568
646
633
675
660
636
664
601
609
647
598
609
611
604
633
579
583
505
575
480
398
352
158
0
0
211
1021
923
783
700
462
177
387
412
279
233
327
486
449
456
420
387
372
524
415
483
614
518
497
462
438
398
439
486
339
191
0
0
0
243
383
332
348
493
796
825
864
758
664
674
643
611
499
537
457
507
591
624
679
600
630
582
657
664
596
657
655
689
728
647
652
734
671
717
736
804
999
1021
1021
712
574
591
497
568
452
462
366
352
630
508
499
460
515
535
451
540
514
524
519
543
617
553
543
551
519
566
543
504
492
415
431
401
371
399
246
377
430
417
441
355
350
385
246
287
209
115
297
504
614
272
311
273
57
216
169
81
92
31
120
95
33
0
0
0
7
300
243
251
286
327
371
380
310
494
600
575
871
1021
1021
1021
1021
1021
1021
1021
1021
1021
1021
1021
1021
1021
1021
1021
1021
605
486
508
312
216
152
79
0
0
0
0
0
0
0
0
0
0
0
0
0
0
0
0
0
0
247
302
337
382
364
518
388
528
551
508
600
545
583
480
439
393
451
489
419
360
335
523
587
532
596
596
568
591
588
572
608
523
568
543
502
615
1021
1021
1021
1021
1021
1021
1021
1021
799
672
684
710
681
734
746
671
719
748
697
630
675
624
583
625
664
595
606
595
555
627
486
535
496
444
489
415
432
408
415
465
399
403
376
350
371
384
374
326
207
211
439
440
371
359
359
332
312
316
351
350
332
342
359
323
352
312
340
323
348
387
268
335
297
284
380
348
396
404
404
436
414
492
468
433
408
388
398
345
359
352
351
344
287
265
284
292
340
377
403
465
448
432
417
422
493
513
483
519
519
505
550
539
518
428
431
636
632
564
645
647
659
736
799
772
728
657
534
444
440
510
478
504
608
615
590
632
575
646
583
588
588
583
551
510
508
398
440
435
371
419
361
316
275
200
237
273
262
248
240
233
225
290
224
212
244
219
221
249
248
240
214
291
268
252
304
327
391
263
152
477
518
408
468
391
417
238
231
179
0
0
0
0
0
0
0
0
0
0
0
0
140
339
319
387
431
480
529
521
547
551
548
600
588
612
604
582
652
587
633
688
656
632
572
615
696
580
598
572
579
575
529
604
598
619
632
608
619
615
668
711
679
580
700
896
768
700
761
713
649
593
569
647
591
628
652
671
691
604
484
524
489
480
461
444
463
408
399
444
412
460
428
422
451
423
463
478
476
473
440
496
432
457
440
441
470
415
471
462
412
467
449
490
553
524
574
502
551
620
652
647
581
588
531
555
478
412
371
495
643
593
551
601
558
543
554
504
551
481
450
466
438
425
435
451
397
355
429
376
364
385
342
376
331
380
391
368
437
441
472
492
422
464
440
412
448
403
431
416
399
415
393
380
371
384
368
340
376
334
327
376
374
399
428
425
483
397
440
402
390
433
315
283
527
665
432
476
494
423
371
396
312
244
276
233
289
287
259
294
271
335
288
319
367
334
352
371
399
369
429
459
455
483
494
512
511
483
515
519
519
508
505
535
510
510
521
472
532
519
500
518
508
534
479
483
487
499
534
539
540
624
551
598
615
588
595
548
480
497
700
728
617
707
708
713
720
647
628
596
543
500
427
400
364
333
316
257
219
179
182
183
152
220
247
228
211
192
273
379
433
384
384
416
427
435
455
327
388
415
375
419
415
460
429
372
417
371
444
383
393
483
463
472
439
415
327
278
280
291
302
329
283
243
150
295
464
378
427
409
407
475
440
476
472
510
487
480
494
510
515
564
494
511
545
499
507
531
504
467
460
488
468
471
478
446
448
444
430
406
408
443
399
445
423
527
524
496
583
449
455
499
450
532
497
460
512
432
471
518
484
547
547
536
532
540
514
492
443
355
292
460
524
467
456
423
464
375
418
423
414
409
399
438
408
408
441
413
415
425
417
443
417
433
374
417
454
431
472
473
481
460
472
483
440
438
475
460
449
432
448
494
432
448
423
472
430
397
494
451
455
507
468
463
435
452
475
422
443
471
447
460
455
489
522
512
542
502
551
483
412
546
398
423
415
415
414
419
419
396
419
404
384
415
399
382
432
375
419
377
422
430
414
415
415
440
459
412
466
443
455
465
476
470
446
455
473
376
456
427
359
419
396
391
401
408
428
387
438
413
436
415
435
487
440
480
532
476
486
418
440
460
409
440
457
451
464
408
409
419
449
441
368
331
222
371
563
455
479
462
444
444
430
444
436
465
446
439
623
574
579
627
651
628
539
561
568
496
508
560
519
521
550
536
519
536
543
536
563
512
543
525
494
539
444
412
414
408
439
423
419
432
367
401
399
369
401
419
407
404
425
460
419
435
462
440
419
411
438
415
415
475
435
502
489
457
495
454
511
481
441
423
291
411
604
534
515
494
535
515
483
496
497
547
536
548
542
483
534
558
476
551
566
568
531
499
532
447
492
462
440
463
428
454
444
441
454
425
419
463
407
419
427
455
412
409
455
422
436
415
385
398
363
449
396
425
420
403
417
356
359
384
359
382
359
408
336
312
348
396
408
431
396
467
374
255
217
384
440
335
384
380
379
428
353
377
388
356
424
419
505
568
600
635
598
601
636
631
686
656
633
575
512
399
284
220
214
155
215
182
201
263
248
297
313
268
310
327
347
391
391
460
377
396
374
419
428
459
497
448
492
518
553
460
398
408
440
528
499
467
480
446
364
316
332
344
344
371
423
381
383
408
310
287
187
412
484
417
471
419
470
496
459
497
463
497
487
443
478
435
433
479
427
359
391
367
294
307
343
287
304
281
316
408
379
434
384
419
382
411
441
411
460
463
408
451
484
431
508
467
470
440
440
454
398
406
338
311
337
319
396
419
440
511
417
412
420
428
382
438
495
455
408
472
508
523
534
518
473
462
523
524
567
592
559
524
376
365
738
644
585
555
547
544
495
494
451
415
431
376
382
414
380
396
393
487
423
364
519
382
377
380
388
454
473
551
627
643
620
590
519
595
624
579
542
507
487
504
467
477
510
480
505
556
463
523
488
476
472
480
462
403
398
432
401
529
483
456
474
443
463
455
427
425
387
440
396
399
435
420
444
444
453
467
436
431
371
286
371
515
518
505
489
541
463
505
505
480
483
428
455
428
403
423
393
435
411
387
401
364
377
353
340
399
351
399
419
396
483
483
492
486
462
537
486
519
487
463
456
443
474
435
431
455
422
448
435
435
449
398
440
441
446
480
444
473
438
395
440
408
412
431
411
446
399
460
428
403
327
287
326
472
496
438
457
457
480
495
494
463
472
486
502
510
415
492
465
449
472
412
419
428
387
406
342
364
366
349
398
371
415
408
391
432
415
430
432
423
500
467
433
399
454
476
376
448
421
391
467
390
423
425
412
470
403
431
470
455
435
432
468
499
492
499
484
514
467
457
473
407
345
263
391
566
427
425
448
440
487
456
441
467
441
460
435
475
476
472
476
449
432
440
415
462
399
441
433
440
455
463
523
494
526
559
543
551
517
543
535
519
505
483
441
483
419
432
436
428
484
427
448
460
440
463
415
507
415
391
464
428
455
444
449
419
428
449
435
417
433
323
271
363
579
524
444
481
496
478
504
444
476
473
454
444
419
432
440
413
444
396
428
424
387
380
382
431
344
390
427
367
440
443
428
483
435
465
460
460
462
463
507
455
455
495
444
441
454
409
440
446
432
413
414
414
415
428
412
436
462
449
483
455
476
464
435
471
423
472
440
276
291
463
483
440
423
435
420
425
428
377
391
414
430
391
380
472
450
444
504
455
475
444
445
451
408
433
423
448
472
431
451
438
448
425
415
451
434
415
419
412
436
387
406
408
399
459
455
455
455
460
454
463
451
487
417
540
496
481
534
467
484
488
455
451
423
334
286
480
550
387
482
440
417
436
403
415
391
433
440
396
435
408
414
438
415
483
439
411
399
368
379
371
342
391
380
409
374
407
448
369
428
403
414
424
383
455
428
396
433
419
415
446
403
463
464
472
439
465
456
435
435
408
432
437
419
484
428
487
494
448
487
464
467
467
382
351
310
536
521
467
532
495
454
496
497
504
511
525
515
481
484
503
543
503
532
553
560
612
601
596
655
638
664
687
687
687
632
611
636
590
577
543
513
527
497
509
487
492
492
473
499
505
483
508
446
477
492
467
482
472
492
465
460
459
448
448
451
444
443
399
463
455
455
463
422
448
396
455
432
335
335
204
374
479
412
406
406
396
390
397
444
391
414
425
401
412
395
440
420
428
431
405
403
387
379
400
352
376
372
359
412
384
401
408
359
359
352
343
333
288
321
270
248
238
192
263
300
317
291
243
220
147
227
311
270
339
319
357
380
399
396
367
428
425
379
430
393
399
448
419
499
467
476
470
463
507
480
463
428
310
361
561
531
499
475
499
496
483
534
489
540
539
558
505
513
517
467
505
493
435
470
433
435
428
379
463
430
444
472
432
470
455
481
492
454
491
454
496
496
472
523
468
508
498
492
547
542
529
601
526
539
488
462
497
435
492
476
462
436
440
443
384
432
460
442
451
423
468
435
435
478
387
399
300
304
585
462
478
484
435
494
454
451
480
444
463
440
478
446
432
486
440
440
463
431
455
399
438
433
408
432
423
455
440
446
467
464
472
486
435
488
446
472
455
432
476
435
454
432
455
440
434
455
444
448
467
435
476
482
423
483
479
462
468
432
451
436
446
448
468
476
462
472
468
455
476
452
433
334
287
491
515
472
492
440
496
440
487
464
457
499
499
527
543
582
577
563
627
662
655
681
621
639
608
487
385
428
590
503
500
497
472
483
486
451
468
428
460
448
408
432
396
371
403
396
403
395
431
417
415
436
396
454
423
404
455
415
440
404
411
441
408
425
387
423
432
354
403
382
390
447
370
399
395
350
345
295
255
129
19
294
438
335
349
375
430
395
415
447
419
457
441
459
438
475
476
448
468
448
432
463
435
455
415
432
460
438
448
470
448
487
438
496
496
472
487
457
476
492
470
467
480
508
435
448
505
455
496
476
463
497
446
483
467
480
470
480
496
481
478
433
480
500
487
451
494
451
473
524
582
654
671
760
724
675
681
652
610
627
577
521
412
372
501
612
503
526
543
507
524
534
476
467
448
428
459
439
417
387
398
404
390
375
399
376
371
348
354
387
372
375
395
433
430
428
440
446
462
428
449
499
454
499
489
463
524
493
508
511
524
416
491
560
531
536
503
487
465
441
463
448
422
459
390
408
432
348
412
427
385
423
379
400
408
387
380
302
236
254
495
489
359
432
415
406
435
423
440
403
438
475
449
455
451
460
455
432
467
425
419
428
417
422
398
396
430
372
457
451
414
416
435
460
385
454
451
409
407
443
423
428
417
425
420
396
432
432
440
433
428
462
431
443
436
415
443
417
419
385
380
419
409
443
439
415
432
403
417
448
403
375
259
343
463
450
451
420
440
440
451
409
406
451
448
444
437
432
440
408
423
435
417
414
412
419
403
393
420
433
443
447
476
492
428
459
479
463
467
459
465
486
399
401
423
391
412
356
402
412
352
359
352
399
380
393
433
432
449
423
467
483
409
471
454
473
516
512
577
566
567
606
612
568
528
431
463
604
619
547
536
534
497
518
467
483
471
438
467
408
423
472
419
443
415
411
448
364
419
417
435
451
432
460
455
472
500
479
500
499
492
494
480
463
460
444
443
431
427
403
393
388
352
354
303
285
345
328
398
371
406
417
408
417
399
427
417
408
455
468
483
476
463
504
475
488
466
415
355
339
615
540
495
551
486
545
523
490
505
487
486
489
487
499
476
468
480
432
455
438
454
439
423
428
432
441
439
432
465
457
465
460
476
475
460
455
467
457
463
444
475
455
427
430
441
441
467
406
455
435
435
438
417
455
440
423
460
428
428
428
420
459
441
463
431
480
470
463
489
415
440
396
483
734
615
647
624
606
659
607
609
600
569
575
540
515
508
463
472
435
440
419
398
380
352
377
359
327
387
376
348
416
376
425
412
399
441
412
415
446
478
433
438
433
435
406
459
423
425
434
453
446
428
438
423
480
422
390
478
407
412
427
415
387
402
380
345
339
294
192
248
441
425
383
382
414
387
379
448
396
419
440
412
444
430
455
480
406
431
436
433
457
377
440
419
422
462
425
519
486
480
504
487
527
487
528
513
496
521
473
496
487
429
467
423
438
429
385
408
385
409
408
377
415
371
392
384
415
472
403
465
444
462
481
435
484
454
335
307
404
560
470
444
465
432
425
415
416
428
387
385
400
364
337
331
352
313
323
365
356
379
355
387
408
395
423
419
465
433
441
472
465
472
473
453
460
449
486
471
454
476
465
449
476
454
462
446
478
487
426
494
472
441
478
443
454
472
475
519
457
499
487
454
511
508
428
384
319
407
572
496
483
504
518
465
503
483
454
511
460
480
463
428
502
444
455
422
425
443
396
423
415
412
440
408
440
487
487
487
454
494
486
473
579
639
655
630
643
655
600
646
641
600
593
591
508
536
553
556
527
548
537
487
487
499
465
460
451
462
451
472
462
496
519
495
499
455
468
391
268
371
585
521
519
494
462
460
459
472
419
445
419
366
385
380
351
344
356
376
344
339
327
380
345
359
401
414
419
450
449
487
489
492
519
512
478
471
459
446
431
446
457
443
425
408
382
338
316
408
393
401
425
440
448
438
457
463
486
560
532
551
519
535
540
472
487
462
411
361
257
393
524
380
434
396
384
353
367
337
339
319
327
336
304
287
304
287
312
323
316
316
353
326
337
355
359
348
419
412
396
449
415
432
422
411
459
428
430
432
435
433
435
468
455
428
464
396
396
451
418
432
423
366
385
334
335
312
302
335
380
412
391
396
451
409
436
369
248
422
635
768
839
910
990
990
864
820
851
872
911
911
920
995
878
718
748
716
692
665
639
630
603
584
611
536
553
510
494
487
497
476
376
328
236
169
177
140
140
145
115
174
115
150
187
198
222
235
271
267
292
364
301
355
347
324
364
313
344
364
350
419
393
390
401
379
418
377
391
343
252
224
431
483
415
382
411
409
430
433
380
446
415
422
443
399
407
433
414
440
397
431
406
399
415
368
415
403
414
412
458
428
425
472
432
435
451
435
438
455
428
440
432
420
436
409
450
430
453
443
408
408
430
430
428
408
432
415
439
467
403
449
393
453
441
386
430
435
448
449
446
468
427
444
452
421
406
307
231
261
518
459
399
398
423
406
428
419
411
455
443
432
438
448
463
423
467
441
463
461
433
414
414
407
407
415
432
438
451
444
444
483
455
452
457
469
505
428
457
457
423
441
433
415
455
407
463
432
431
454
448
463
428
407
460
451
432
393
440
407
348
369
396
407
438
408
388
435
462
411
403
441
380
312
323
550
517
429
486
471
467
472
480
455
468
452
487
455
440
479
471
496
483
495
472
462
452
428
460
467
440
473
467
498
459
473
527
465
494
503
478
503
459
484
494
478
500
441
468
487
455
480
440
492
494
493
504
478
492
460
470
521
440
473
457
423
453
451
496
480
457
495
476
463
483
419
430
271
427
606
472
515
511
452
499
505
476
473
492
467
452
489
463
483
455
454
484
449
423
446
423
444
384
432
423
428
451
449
472
491
475
475
467
480
504
480
476
483
509
484
457
508
454
486
503
483
504
455
487
486
431
472
432
455
446
395
449
432
388
432
400
396
359
345
407
412
399
393
395
423
399
454
425
376
305
305
535
486
496
518
479
460
481
483
465
455
489
443
459
455
417
463
445
468
466
449
441
403
428
396
434
443
449
479
470
476
503
492
520
511
504
501
495
492
543
532
536
534
566
540
524
519
451
483
470
460
455
385
437
396
391
435
391
472
428
419
460
463
444
428
417
436
415
448
475
460
473
455
473
448
433
422
339
305
463
551
518
484
510
451
458
492
423
444
470
423
444
440
447
444
432
444
433
446
415
423
420
380
384
365
380
371
380
414
393
403
422
386
384
433
412
446
414
431
419
412
441
391
444
447
384
473
444
430
448
423
448
420
432
420
454
448
411
452
425
396
419
368
384
353
368
391
384
432
395
440
455
396
460
406
350
291
303
546
537
438
476
452
483
444
467
480
437
447
433
417
452
391
448
408
412
423
368
384
376
350
347
295
327
339
369
417
403
425
434
471
467
440
487
451
463
468
487
483
476
460
460
462
492
487
468
521
503
495
495
519
520
505
527
535
515
518
491
508
486
549
551
516
524
518
537
505
505
476
390
332
480
578
524
472
496
531
472
491
478
496
460
467
486
460
487
492
451
524
487
480
504
441
513
467
451
476
476
463
462
499
480
453
510
455
473
496
455
487
467
455
479
429
470
463
430
478
465
460
425
455
479
406
463
448
483
463
444
480
406
430
452
427
444
393
423
444
423
432
435
440
443
435
475
384
335
255
376
566
440
467
489
449
483
457
468
457
432
496
451
439
491
451
463
449
447
472
423
467
423
433
451
364
449
440
428
423
415
463
428
423
457
435
427
434
430
462
423
454
435
432
468
440
445
455
492
481
451
462
503
454
478
476
508
470
454
483
414
448
432
443
481
467
446
462
476
447
451
467
359
295
281
402
560
460
480
460
444
480
423
472
462
448
460
425
440
460
440
451
457
452
443
438
460
441
441
424
419
472
437
480
476
453
441
443
483
465
432
470
449
463
428
415
455
415
457
457
440
438
423
444
441
446
441
412
465
432
435
444
408
459
421
448
449
393
387
444
423
423
425
433
419
368
446
335
321
241
212
483
430
387
423
391
417
384
420
424
376
430
412
377
441
399
414
401
423
417
408
411
339
403
376
348
408
392
398
430
398
414
368
414
380
361
391
393
423
418
419
450
419
476
457
417
515
463
472
448
467
487
449
494
497
492
516
487
519
510
496
527
499
532
575
508
553
527
496
492
480
471
364
302
428
583
496
470
510
498
495
470
446
483
476
456
480
476
457
473
435
472
478
471
491
419
456
424
441
422
444
487
446
489
511
480
502
470
513
524
491
492
515
499
503
487
492
446
487
504
454
520
467
467
455
451
503
455
452
444
463
455
415
432
435
428
432
368
387
430
435
472
419
446
470
426
451
428
364
254
323
545
448
470
478
449
492
455
457
460
471
492
449
472
472
463
457
428
439
444
425
438
380
435
377
396
404
391
446
424
424
483
408
452
444
435
473
428
427
441
425
455
403
439
454
448
441
417
451
432
460
480
451
467
463
455
475
476
464
468
455
476
428
454
412
417
460
436
443
463
419
473
441
444
459
393
312
233
479
529
454
496
460
483
510
463
492
470
502
462
443
519
470
483
467
463
496
417
489
449
425
448
412
440
419
408
440
423
440
452
428
446
444
460
465
446
476
465
478
467
483
476
455
462
472
451
455
441
455
438
423
443
391
450
449
414
433
398
391
375
355
345
342
364
339
295
332
334
358
384
390
404
382
385
387
312
292
169
185
425
331
344
382
433
428
443
463
448
470
444
483
488
460
505
470
476
497
487
513
513
472
503
422
438
443
445
480
471
470
481
451
465
448
484
438
471
460
423
463
459
409
443
451
470
448
427
482
417
459
451
456
455
447
483
451
467
455
435
475
444
422
451
436
471
481
457
478
423
505
454
405
387
286
366
551
497
454
472
481
461
463
487
419
479
478
452
455
455
512
527
543
547
502
547
510
478
463
447
453
431
449
463
455
480
478
448
487
460
480
475
486
451
460
508
462
469
472
467
497
466
486
488
457
472
467
476
484
462
455
463
467
476
446
438
430
449
420
390
440
408
444
463
425
455
459
454
445
396
398
254
339
568
451
481
466
445
449
448
451
438
435
465
407
467
423
455
463
427
457
454
455
459
400
454
429
437
432
403
449
428
454
441
435
475
431
457
444
415
460
419
446
433
441
440
449
465
455
419
484
452
454
505
446
462
483
448
455
463
467
472
451
462
448
460
423
444
422
425
460
444
481
444
430
486
444
449
433
316
299
440
545
494
467
481
468
510
482
455
494
437
456
475
395
495
443
449
454
428
438
408
443
399
417
403
369
427
409
393
440
423
412
455
399
443
412
432
484
399
455
427
419
463
436
489
431
445
467
436
491
447
448
466
441
476
417
440
460
448
479
423
425
454
417
454
433
406
423
400
406
368
417
454
414
451
433
447
441
415
471
348
278
257
492
503
415
470
443
438
444
423
451
460
423
473
441
427
471
436
455
419
435
438
423
412
391
415
406
376
428
431
423
451
440
460
425
444
446
464
479
428
428
449
399
447
446
446
438
444
451
423
487
443
432
492
449
460
468
456
460
476
483
467
463
472
454
455
459
440
481
467
495
491
499
499
502
497
503
449
403
300
551
590
480
548
475
494
519
462
492
481
487
476
451
484
455
471
463
439
483
415
428
446
399
403
385
403
433
424
431
449
472
467
427
483
463
487
460
467
480
459
468
438
470
483
433
484
466
444
473
470
457
460
463
476
422
463
444
438
459
430
467
425
415
448
390
401
417
412
462
452
457
440
428
457
467
451
385
303
280
487
540
470
455
510
433
476
449
450
472
444
480
467
457
483
420
457
469
423
456
432
427
406
386
427
401
414
451
399
444
454
435
455
436
470
451
474
451
475
465
425
480
435
432
480
430
472
463
451
443
447
449
467
491
460
462
457
468
479
462
460
468
472
428
446
435
403
396
423
431
419
435
462
401
455
428
432
403
323
275
236
507
444
380
423
412
401
312
385
433
379
439
433
435
455
447
481
425
468
463
423
440
440
427
436
440
453
448
451
494
476
480
462
468
476
430
444
448
463
455
408
459
432
425
461
433
444
440
452
454
440
470
428
451
460
444
472
455
476
478
428
467
487
433
464
440
443
415
440
488
451
479
465
455
478
449
462
372
304
295
463
513
465
476
467
463
451
448
412
483
435
455
444
423
449
433
465
454
448
460
417
407
425
432
454
415
467
447
446
475
487
483
504
486
524
528
556
547
542
467
367
307
334
376
382
388
438
404
382
430
395
435
431
436
428
444
460
435
428
463
427
407
434
440
460
451
487
470
438
472
444
433
382
332
332
527
530
455
459
476
440
480
451
472
440
423
455
432
472
435
444
441
420
432
436
415
435
387
396
440
380
467
451
435
465
432
487
467
457
480
433
483
469
440
468
448
438
462
431
455
433
460
454
414
464
443
451
444
445
462
420
470
460
446
462
428
433
420
408
460
435
463
480
457
423
451
508
428
430
401
343
582
577
537
538
531
551
497
519
510
513
513
484
487
476
487
500
495
457
483
440
460
408
439
451
415
440
412
436
484
417
438
483
451
480
432
497
465
456
475
449
496
440
487
488
473
497
495
460
507
481
487
451
457
465
457
487
429
457
477
419
427
412
407
435
435
446
460
447
462
417
451
449
429
366
263
316
497
459
454
428
462
415
435
412
366
336
280
300
291
307
305
271
257
203
229
305
316
327
344
359
390
380
411
409
440
471
460
448
486
423
478
457
451
513
492
473
460
496
459
433
505
465
472
447
468
536
462
492
542
525
551
496
527
543
468
483
439
464
460
399
511
463
457
452
444
465
382
425
397
261
207
371
550
439
448
479
443
460
451
464
465
435
482
459
467
472
515
515
470
478
511
440
455
448
408
440
440
447
433
457
467
449
436
500
470
481
476
511
461
478
499
455
463
494
444
515
463
480
526
476
487
487
515
519
512
490
470
492
440
409
430
430
454
464
420
470
409
441
448
403
377
251
273
467
424
423
396
391
415
431
441
422
472
467
483
556
504
527
516
513
527
499
531
505
525
539
487
512
483
476
476
495
480
472
455
448
406
413
399
384
393
343
355
349
291
343
321
318
309
321
376
359
388
393
419
440
395
452
428
392
428
428
443
471
463
512
473
512
504
504
528
408
393
369
560
611
508
499
527
492
502
472
497
496
472
472
440
455
415
428
468
396
387
379
340
324
353
355
366
359
415
365
451
408
432
459
422
435
444
436
441
429
463
462
417
465
440
450
457
431
472
464
460
435
472
470
435
442
480
415
422
461
472
460
480
499
457
468
481
429
361
292
369
519
493
483
460
500
471
468
473
446
476
460
459
483
457
460
476
460
460
423
481
420
408
432
403
464
427
438
481
432
462
463
440
495
455
467
470
459
476
435
440
457
463
486
430
486
440
432
467
430
470
471
444
451
441
432
463
424
444
436
435
417
468
482
460
465
465
451
475
399
347
248
465
543
444
463
471
441
467
441
467
461
451
466
406
478
444
438
487
431
438
438
427
440
408
425
433
421
451
415
463
463
478
470
446
495
438
439
489
473
459
439
455
486
423
468
452
444
480
427
448
470
452
451
437
463
459
452
481
433
467
448
436
448
423
451
441
391
449
429
470
440
438
499
436
468
428
440
367
231
380
543
476
481
443
481
455
475
440
455
476
444
451
483
415
483
443
435
463
425
445
430
416
415
385
438
433
414
451
440
451
460
460
448
446
476
450
444
448
448
475
430
467
448
414
468
425
448
496
423
446
438
454
455
419
480
445
449
486
432
463
412
398
396
399
432
433
489
472
428
472
467
484
472
399
387
295
359
575
483
476
486
463
472
448
448
420
430
438
387
408
372
399
408
384
443
399
384
428
368
387
408
417
411
420
455
450
455
448
463
477
455
462
472
467
480
432
439
486
430
445
483
455
428
460
471
449
447
472
444
455
451
475
494
433
452
432
472
423
436
423
446
467
476
433
483
470
467
451
465
408
311
274
494
519
473
467
467
460
473
436
457
475
464
444
462
432
420
465
439
446
444
415
432
388
407
395
401
438
403
457
446
449
424
438
497
432
422
480
432
491
440
425
476
446
467
444
464
467
435
472
448
454
468
423
494
454
448
499
423
472
446
473
470
457
453
460
451
419
430
440
428
455
463
444
463
438
480
465
434
450
353
259
368
536
489
463
489
444
465
480
441
475
475
448
481
423
479
468
415
472
446
436
423
419
423
399
412
419
417
444
440
473
447
430
488
438
503
480
454
487
455
465
482
457
473
447
438
445
428
446
462
440
460
433
446
435
435
468
461
463
439
451
440
440
473
419
436
478
417
423
403
401
417
430
467
444
463
441
430
465
428
403
359
227
376
535
444
480
454
476
460
425
472
464
462
431
467
451
454
460
429
454
469
412
435
423
419
419
399
459
419
430
454
428
493
435
471
487
428
492
460
444
478
424
483
435
455
473
423
476
438
448
448
448
481
444
435
470
425
457
460
465
451
431
499
433
455
450
461
463
428
483
438
393
459
432
463
483
474
494
492
468
475
455
369
257
323
560
547
540
553
571
563
536
581
550
561
542
519
529
480
503
492
461
472
448
430
419
399
419
411
420
414
440
476
435
476
502
478
543
537
579
577
582
624
579
627
611
572
551
566
537
499
519
521
468
483
483
464
457
438
420
444
425
444
391
408
401
353
390
355
419
411
401
440
414
435
408
379
387
300
267
377
524
465
408
460
442
428
470
384
415
430
421
428
385
436
388
368
430
361
396
391
353
391
369
371
371
344
422
380
423
448
419
483
408
429
467
412
441
416
415
422
419
400
329
355
294
291
271
179
228
239
188
135
172
291
265
311
324
368
563
591
687
751
642
689
731
647
665
732
819
825
716
583
593
480
399
711
761
666
705
638
642
648
604
593
550
518
531
499
483
440
454
423
444
483
455
443
455
387
468
438
447
483
476
511
491
492
487
483
507
487
512
540
499
568
531
550
553
511
574
528
483
455
422
505
455
460
483
457
486
428
432
385
379
396
313
280
236
193
199
180
199
209
196
233
220
195
227
132
97
0
169
340
195
231
254
185
227
248
319
303
369
364
342
463
416
439
504
484
524
512
540
534
492
540
494
504
596
589
619
563
536
544
480
478
444
427
403
369
352
352
348
353
319
352
287
355
371
316
399
398
395
415
448
441
444
460
510
451
525
478
489
524
447
472
423
387
444
407
427
415
423
411
364
368
312
268
187
165
456
451
427
457
423
462
433
460
460
415
455
462
424
487
480
472
457
444
456
443
454
432
419
403
423
463
433
463
464
434
467
436
425
448
435
448
419
436
408
386
411
364
420
428
415
462
419
408
451
455
446
464
479
480
455
465
440
492
499
460
463
411
531
549
515
572
545
537
558
558
511
406
448
419
590
641
600
543
590
499
531
492
435
487
467
459
466
452
425
423
487
419
417
423
435
432
446
470
485
462
448
440
539
496
492
560
558
531
579
511
536
512
519
551
496
518
493
484
512
499
536
518
569
583
568
668
608
559
601
575
593
557
563
593
555
624
707
876
1021
1021
696
526
536
467
379
435
380
345
363
350
262
187
227
327
423
359
348
382
376
327
380
380
344
340
352
351
344
384
337
289
377
331
321
348
333
259
89
0
0
0
0
0
9
252
235
323
366
428
436
448
491
448
492
560
563
623
700
775
828
799
831
736
619
611
539
508
486
508
473
423
316
115
35
28
56
116
166
227
284
329
355
408
401
414
411
428
425
432
440
408
456
440
443
463
435
424
391
329
268
462
553
463
463
476
433
467
478
504
527
513
547
494
480
467
463
508
478
480
487
396
409
390
335
335
337
359
319
335
352
335
377
361
395
397
420
440
462
479
498
491
526
536
558
611
609
643
623
591
568
551
537
470
476
454
432
406
371
374
399
391
408
408
406
440
415
460
460
473
467
444
504
497
508
491
476
515
460
463
454
382
366
228
413
508
446
428
415
504
461
408
496
438
462
455
438
497
496
508
512
489
482
454
451
444
395
412
359
380
411
380
451
393
435
430
377
460
455
417
473
440
444
412
415
428
435
444
415
463
483
463
486
463
511
512
457
523
496
489
512
496
486
472
442
457
460
448
384
446
410
401
425
416
425
457
412
440
376
359
280
273
537
487
463
473
463
467
444
462
428
475
487
455
454
467
417
472
444
423
439
449
447
364
443
399
387
415
391
423
425
428
423
408
432
428
440
449
415
428
429
438
432
432
486
438
438
471
451
481
457
455
484
470
463
448
474
495
433
463
448
476
467
423
452
451
412
418
417
496
460
451
470
481
497
462
451
427
319
335
558
543
498
464
472
483
471
476
399
481
472
425
448
408
425
412
415
452
399
399
404
384
398
364
417
408
423
441
423
483
460
478
503
454
476
491
460
484
475
473
475
476
489
450
489
472
455
491
470
505
494
467
491
440
479
472
449
483
457
508
449
462
451
424
428
423
432
465
448
496
444
448
505
440
467
433
347
326
339
547
531
475
524
472
491
491
480
496
463
502
455
451
455
440
471
476
441
483
432
439
415
400
425
364
391
347
364
374
308
348
358
348
380
323
374
372
361
377
342
354
361
359
343
341
380
334
325
335
263
403
260
194
304
195
263
385
204
248
206
221
193
467
438
472
822
1021
1021
1021
1021
1021
1021
1021
1021
1021
1021
1012
798
684
507
551
611
467
427
323
305
274
201
220
228
142
181
172
131
65
142
124
43
83
113
103
105
134
176
217
172
258
415
344
376
414
344
387
418
405
401
384
358
356
353
363
377
326
327
335
359
301
401
278
257
323
263
172
270
199
142
204
273
216
169
204
192
188
237
327
398
236
303
376
252
199
159
211
206
236
243
435
540
646
1021
1021
1021
1021
1021
1021
1021
1021
1021
1021
1021
1021
1021
1021
1021
1021
1021
1021
1021
1011
711
641
540
423
352
267
127
46
0
0
0
0
0
0
0
0
0
0
0
0
0
204
388
444
627
665
785
833
911
971
1015
1021
1021
1021
1021
1021
966
536
476
342
259
251
141
71
60
0
0
0
0
0
0
0
0
0
0
0
40
90
127
169
184
291
304
323
391
371
401
398
385
369
371
355
323
252
243
211
153
193
193
107
172
184
120
167
143
127
156
159
190
224
235
287
292
327
334
359
387
406
417
418
395
419
425
425
432
432
467
441
412
393
371
305
287
255
303
304
286
280
283
276
319
316
316
296
276
255
198
180
161
467
412
420
441
478
515
492
542
542
525
519
512
534
519
472
532
473
452
465
440
396
374
351
369
312
316
343
335
307
391
344
365
369
359
374
414
415
432
423
483
455
467
492
481
492
531
494
502
513
491
519
487
467
476
451
465
420
435
438
409
412
419
433
381
355
436
403
409
353
342
425
412
414
428
393
338
222
297
543
483
415
440
451
440
432
428
435
455
398
460
428
379
428
431
412
443
419
409
382
406
375
387
380
408
376
409
399
415
423
412
425
441
440
439
455
425
457
432
433
470
457
476
492
507
480
483
537
504
504
508
504
504
515
476
516
457
463
443
448
481
470
435
457
455
444
419
428
435
402
330
252
387
521
487
471
480
499
489
492
492
487
455
480
451
499
475
435
472
440
448
425
427
417
385
422
363
382
385
369
440
412
377
440
424
432
463
409
433
440
441
454
464
499
465
470
483
499
492
489
525
510
519
513
536
532
480
502
529
487
487
505
454
460
449
440
423
476
491
470
450
478
462
422
476
423
347
305
321
527
492
462
454
432
472
430
436
478
433
420
425
409
403
400
399
401
404
385
396
377
384
399
377
387
409
412
444
408
473
465
448
462
487
470
419
483
476
463
452
435
457
455
423
440
459
435
438
438
435
436
435
441
446
472
454
425
449
440
459
455
458
447
434
448
420
443
455
470
448
470
465
420
446
460
412
348
253
371
524
463
448
479
455
471
464
457
466
457
439
467
435
470
444
448
441
428
436
419
408
404
391
404
405
408
407
391
444
449
433
425
435
441
470
434
444
470
451
471
460
440
472
439
487
459
467
487
444
451
455
457
467
448
476
450
448
473
440
414
492
454
438
448
440
409
424
423
412
441
449
471
440
472
456
463
455
400
344
275
343
556
480
475
460
460
460
457
452
492
484
446
455
444
449
451
476
461
435
460
434
415
440
433
425
428
423
440
444
455
463
452
444
444
440
435
443
423
420
423
445
428
424
427
448
428
440
452
465
460
460
449
484
455
454
494
446
463
428
459
457
419
457
440
423
433
380
412
420
428
414
424
479
430
441
440
423
403
312
260
451
556
483
473
449
518
465
472
521
495
484
478
481
476
435
448
492
438
444
440
415
403
421
395
420
419
415
425
428
448
435
448
451
472
448
472
451
460
443
467
443
446
454
428
432
472
444
419
446
448
483
425
455
437
460
476
454
483
470
462
480
467
448
468
492
496
508
483
498
476
494
475
457
316
279
423
583
472
455
470
444
423
440
419
430
399
401
415
412
451
404
438
460
399
425
424
428
382
398
391
433
422
455
455
480
472
476
508
487
483
513
480
520
518
487
491
476
491
432
454
475
465
472
449
479
443
438
444
486
455
455
452
451
428
433
428
440
444
396
417
396
399
440
415
467
443
435
441
451
440
396
339
279
460
519
486
526
486
484
475
487
487
483
467
459
451
451
435
467
456
455
403
444
432
398
415
391
399
398
415
443
399
417
446
459
451
419
455
460
427
475
439
443
443
463
448
419
480
422
423
476
454
460
432
447
463
430
460
435
459
440
449
460
440
423
426
452
414
397
425
474
451
427
439
451
463
441
423
344
255
312
515
494
465
463
481
467
472
487
439
465
471
463
455
472
463
457
460
447
430
451
443
440
422
407
408
440
422
430
457
440
414
473
418
408
444
462
423
444
440
452
444
436
444
459
473
444
470
480
440
492
455
472
472
467
491
486
478
460
468
508
446
472
431
470
463
431
412
421
384
427
423
444
430
444
470
417
476
446
403
411
307
268
527
515
467
486
524
484
487
494
481
460
478
489
479
465
479
449
463
454
449
455
413
421
415
396
408
414
432
455
399
425
472
477
447
448
474
452
435
438
467
463
455
433
451
438
460
428
435
448
420
455
467
455
444
460
462
476
452
465
462
457
459
479
466
465
445
486
444
438
455
403
415
433
415
460
425
428
419
419
399
443
368
283
224
295
499
411
457
441
404
483
429
444
452
452
431
463
459
470
475
465
464
465
480
470
460
441
428
438
454
423
432
470
451
451
467
470
457
462
468
455
446
446
448
446
412
444
439
412
429
440
430
412
444
443
460
423
465
444
452
455
448
483
470
463
479
462
499
443
455
460
472
480
487
499
483
494
486
470
472
448
385
292
409
625
502
476
483
455
463
452
452
436
444
455
412
408
432
416
390
415
419
384
403
373
384
349
396
383
408
411
423
449
464
472
475
492
491
470
505
502
478
513
462
464
485
476
467
463
463
495
460
463
451
464
465
449
472
463
455
462
443
456
444
431
430
459
463
439
449
448
425
423
415
407
479
472
456
455
460
467
487
449
399
344
271
439
551
531
455
496
508
465
455
486
455
487
499
448
444
463
449
455
435
423
425
438
428
395
401
415
385
406
439
430
467
449
448
432
440
467
440
462
464
455
454
448
463
449
460
444
460
462
456
455
448
475
452
451
448
439
454
468
452
467
459
435
447
454
447
455
464
449
448
448
413
455
444
387
430
471
459
455
475
455
463
471
452
390
327
243
414
531
452
484
470
443
478
449
456
476
444
448
473
454
452
434
454
454
448
444
422
448
425
412
420
430
425
428
435
471
447
495
455
449
471
460
465
448
484
491
451
463
473
454
455
444
470
431
432
429
433
459
433
468
457
478
454
448
463
460
441
482
447
456
471
435
467
467
440
457
444
451
457
422
431
440
408
423
447
444
443
467
464
451
460
430
408
312
249
350
524
479
466
476
436
430
484
463
415
441
459
444
423
418
448
431
440
424
407
423
412
414
399
412
399
398
423
433
428
436
433
446
448
467
463
435
460
430
459
479
463
440
476
462
446
444
444
471
463
472
462
465
473
438
465
476
451
467
455
461
451
475
460
420
425
425
435
396
431
463
423
464
441
451
468
460
451
428
348
278
449
580
487
502
480
454
505
483
473
485
472
472
470
461
449
433
452
415
403
384
352
387
382
382
368
376
395
403
406
439
478
443
483
470
444
500
454
486
499
481
483
499
475
480
474
449
475
470
462
473
460
465
455
423
472
430
464
427
448
431
440
423
441
432
433
415
425
390
409
444
454
440
460
454
480
444
451
413
364
284
341
550
486
473
488
451
463
465
487
459
459
479
459
453
441
482
467
415
476
412
415
472
387
432
430
396
423
415
436
435
403
467
440
462
445
455
463
417
448
440
451
459
472
452
452
441
467
440
482
464
449
481
451
467
471
455
465
438
460
444
441
453
429
428
433
425
411
377
408
436
415
448
460
444
444
472
439
398
332
244
385
583
480
467
492
487
468
462
503
496
455
472
448
476
472
414
467
428
411
428
415
414
390
415
422
384
395
433
441
447
459
483
477
480
463
465
481
459
459
463
427
419
428
414
406
429
463
419
422
419
432
444
432
440
444
417
417
449
414
428
427
419
419
423
419
412
409
414
436
432
452
449
415
432
423
396
451
371
263
223
508
511
428
499
495
487
472
460
465
473
510
499
449
513
499
513
524
498
512
486
460
478
460
418
422
409
437
417
399
433
399
457
432
446
425
444
457
451
496
492
482
542
508
527
543
529
536
515
536
536
502
516
527
492
500
483
512
531
518
487
476
496
448
492
476
448
489
448
428
454
432
408
432
380
318
224
359
560
448
403
455
440
409
401
385
399
409
376
415
368
381
391
384
379
393
384
415
411
355
419
412
393
428
428
466
482
434
456
432
459
462
440
472
467
451
462
447
451
435
454
460
407
459
443
398
451
415
440
480
444
473
484
455
432
439
455
443
440
470
446
451
476
440
451
456
391
352
244
392
536
451
464
456
449
444
456
444
433
467
480
455
438
446
465
441
423
448
463
422
423
423
396
399
435
408
416
432
455
457
428
472
468
455
432
443
440
492
443
433
463
473
446
448
476
449
462
473
467
478
465
460
499
451
468
500
455
440
463
433
408
448
423
449
451
423
406
459
406
440
432
343
254
271
508
508
452
502
500
455
463
504
467
486
533
510
447
487
489
473
470
467
461
451
398
428
408
422
424
407
401
423
440
420
448
455
451
444
411
468
455
448
451
440
467
435
428
473
464
467
478
483
478
440
495
489
460
487
472
492
451
443
467
455
444
425
441
472
448
463
463
439
440
419
448
435
409
336
217
310
515
436
465
452
472
444
451
483
480
487
467
478
472
455
470
492
454
457
444
435
412
423
435
411
409
387
415
448
406
443
452
432
419
431
446
455
443
451
467
449
435
464
483
428
428
431
419
423
409
397
435
403
449
444
432
457
440
470
454
444
465
460
462
423
423
443
447
422
462
496
432
487
472
441
476
431
363
260
319
511
505
448
462
438
472
451
446
463
455
431
428
470
432
423
470
460
403
441
457
396
414
415
385
427
395
380
403
404
440
428
419
417
449
403
425
419
408
431
403
423
415
423
455
417
448
443
454
443
460
495
441
452
478
441
487
484
463
495
454
492
446
455
472
438
462
479
480
487
452
480
471
463
440
387
327
334
546
483
483
483
468
463
472
457
460
462
449
448
467
435
451
443
438
438
433
428
396
423
396
419
396
403
423
423
417
428
457
460
472
496
436
455
463
454
467
425
455
444
454
417
419
472
423
424
463
411
467
478
449
476
470
455
440
451
478
439
467
462
422
430
407
438
431
455
452
435
459
441
433
473
412
342
275
329
568
472
473
472
470
470
481
478
452
471
489
448
444
471
449
464
432
432
454
409
427
430
401
408
427
380
408
455
444
438
448
440
433
472
451
451
455
460
466
448
467
455
470
462
460
435
467
451
452
460
465
472
439
454
462
438
434
455
451
446
463
428
432
441
397
439
409
435
480
448
440
462
451
473
452
441
380
262
290
551
503
460
487
504
457
460
465
441
465
449
478
464
444
448
452
444
409
450
444
406
432
428
411
387
412
436
423
459
448
448
470
419
464
463
447
475
455
454
460
448
438
448
451
472
473
435
455
460
497
460
476
463
487
458
449
476
444
452
463
462
439
454
422
408
449
415
430
460
446
438
440
448
449
416
359
262
280
546
476
431
475
478
444
449
455
449
448
470
451
444
451
422
460
423
478
440
430
415
404
396
412
409
432
407
430
451
417
431
467
455
471
451
452
451
427
430
452
456
455
448
432
427
425
448
448
455
441
467
451
415
463
444
448
462
432
440
423
412
412
443
465
460
432
448
468
459
443
411
377
284
380
569
503
463
472
492
480
465
475
489
483
472
467
451
460
464
463
452
470
442
439
417
417
412
411
418
436
422
456
440
444
467
472
467
461
470
470
444
446
480
451
446
448
481
468
433
446
472
487
444
486
492
475
460
467
496
470
467
488
455
422
449
435
428
432
430
425
446
423
446
430
473
444
399
335
263
366
553
472
467
492
465
476
468
492
492
472
472
462
470
487
467
463
472
459
447
423
432
423
409
423
414
412
407
438
419
432
463
435
440
460
432
448
463
433
455
473
444
446
448
463
457
467
467
460
478
448
471
448
463
475
463
470
433
470
440
420
441
443
441
447
466
444
462
444
433
480
428
396
339
284
403
518
452
476
511
480
450
480
463
460
480
480
450
481
460
443
455
449
446
435
419
455
387
404
431
422
423
448
430
435
438
463
441
462
455
448
459
444
455
470
475
432
463
460
444
463
460
465
440
471
451
441
467
462
455
433
464
435
444
444
395
421
428
426
446
441
444
428
415
433
432
417
361
263
230
440
496
440
463
459
460
460
411
449
457
415
472
455
439
451
408
457
434
441
438
423
448
404
412
427
399
440
435
408
489
448
430
455
440
430
441
455
459
451
459
439
436
423
468
475
440
455
430
466
433
459
448
470
451
479
451
444
471
440
428
472
496
448
487
487
465
481
462
449
411
352
303
496
568
450
460
510
467
468
455
499
475
445
472
483
464
438
457
471
412
436
435
439
408
401
399
408
395
415
448
449
463
441
472
466
486
472
457
479
470
472
476
460
472
488
448
462
448
467
460
453
489
446
455
451
460
441
441
472
424
408
432
425
464
457
463
462
455
461
457
417
396
300
326
536
472
507
451
478
499
452
478
455
455
471
472
447
423
443
451
415
423
451
425
389
395
409
401
406
409
431
422
425
429
448
468
448
449
448
455
432
455
433
457
463
432
452
460
432
457
455
472
457
457
487
463
460
449
431
472
463
495
468
502
469
465
473
436
431
380
271
272
492
472
440
401
455
412
435
448
448
457
415
451
457
428
465
473
427
449
472
436
440
420
428
448
399
443
435
441
451
460
423
430
455
448
452
435
434
423
429
449
435
430
457
449
461
455
492
465
468
483
483
502
478
463
443
470
494
484
475
472
465
424
423
433
391
304
235
307
473
427
409
412
433
422
425
433
459
449
465
462
454
460
461
462
462
459
460
417
428
435
401
412
438
406
439
403
441
455
432
451
431
455
436
448
472
473
464
472
487
492
491
494
478
505
486
457
483
460
468
460
441
415
459
428
428
399
412
415
444
455
432
467
460
457
467
430
423
361
275
463
547
470
527
487
486
487
494
480
440
497
454
430
451
409
432
423
430
415
396
384
380
408
384
376
412
417
420
441
435
454
467
467
482
491
446
475
465
451
435
489
455
436
467
448
445
395
455
455
456
420
444
475
393
432
470
415
441
448
417
427
462
463
476
440
492
497
452
455
422
358
257
428
574
459
480
444
464
456
427
423
470
473
451
467
467
415
448
487
419
425
475
428
403
417
428
403
414
419
415
479
462
459
452
472
465
463
485
462
476
492
452
462
455
450
482
457
463
440
423
451
435
472
457
432
446
472
468
428
431
447
406
380
455
444
448
444
465
429
440
440
448
381
316
310
542
497
472
487
487
486
478
499
481
442
505
484
460
473
460
470
457
438
428
440
432
396
433
432
428
388
428
435
435
441
443
445
462
462
457
455
455
443
440
460
463
468
467
448
456
468
455
491
460
463
480
451
470
480
446
468
471
432
472
464
449
425
430
415
414
438
427
472
466
444
432
472
439
422
340
307
339
537
470
478
487
480
475
467
483
480
467
467
481
455
437
425
463
428
438
433
419
414
412
359
411
399
414
403
425
435
441
480
420
455
480
476
451
465
476
472
467
455
468
486
460
448
467
476
455
483
457
448
457
430
475
441
470
440
440
452
407
463
448
420
444
391
403
415
459
472
441
454
455
472
467
440
430
387
246
415
543
460
481
485
483
481
471
419
483
460
441
448
451
435
455
422
440
451
393
419
443
415
391
415
404
406
411
436
440
451
441
451
455
457
463
441
478
455
433
448
450
463
444
428
453
455
448
446
444
423
455
475
446
435
455
444
401
452
465
444
463
444
415
435
444
423
415
399
428
417
440
462
435
451
471
454
463
423
415
307
243
527
519
448
467
496
449
455
467
455
438
472
480
448
435
463
433
451
455
423
448
440
391
384
414
398
406
391
409
454
435
423
440
414
473
411
451
444
435
468
438
444
441
419
481
457
476
476
462
472
461
481
480
473
470
478
483
481
475
486
472
462
444
435
472
456
465
471
440
496
461
481
468
476
399
319
329
478
556
499
460
464
487
460
457
478
476
444
455
449
446
455
440
444
457
433
408
412
412
400
415
418
384
444
433
438
463
455
480
463
470
449
448
460
417
457
467
431
455
449
460
423
448
467
465
446
464
449
459
475
438
470
480
448
468
449
441
472
451
472
431
432
440
401
427
438
451
449
472
448
444
455
438
415
345
259
307
563
494
483
502
463
492
496
472
462
493
444
524
542
465
487
480
451
451
448
460
406
414
438
391
404
412
423
444
441
446
455
457
463
472
502
449
476
502
449
463
449
438
489
446
440
455
451
454
455
476
448
462
455
439
451
468
438
454
484
420
428
460
465
419
444
449
403
406
412
432
451
460
446
449
451
455
447
396
344
240
403
542
472
467
478
448
492
461
480
462
460
436
475
451
451
455
450
444
398
455
433
409
408
395
385
398
430
427
415
447
443
463
468
455
454
435
481
449
445
455
480
451
451
447
463
441
463
440
472
467
441
460
445
452
470
452
455
451
472
425
432
470
457
430
439
443
435
414
432
415
396
420
472
432
451
468
443
455
468
433
335
258
335
523
486
452
489
460
455
470
439
455
449
438
441
419
432
451
422
425
423
419
432
388
415
391
387
384
384
419
402
433
455
432
460
448
476
467
449
477
463
451
441
432
479
467
451
465
467
472
448
455
470
468
473
457
480
460
484
461
472
435
476
468
472
469
467
451
419
444
420
428
440
478
484
428
472
484
432
465
387
310
352
545
524
451
492
456
492
492
448
491
483
455
448
483
476
478
452
451
451
440
435
423
398
415
403
381
385
401
431
432
463
460
441
463
467
451
455
486
440
486
467
446
472
464
463
468
462
472
436
473
465
423
439
441
460
432
440
472
446
431
460
451
457
415
447
438
435
423
422
412
439
435
449
476
467
465
499
473
478
448
385
327
296
563
523
484
483
476
481
449
422
415
428
414
407
452
431
436
432
440
423
431
423
425
391
425
428
408
393
439
432
433
480
472
473
455
457
484
472
443
495
464
467
436
465
463
455
446
439
460
440
454
467
449
454
436
455
467
448
460
468
446
467
451
464
472
451
451
440
455
423
409
446
399
399
438
433
445
462
467
456
454
440
430
387
300
251
523
515
465
455
476
481
473
479
457
460
460
450
486
452
462
445
432
455
441
440
422
411
403
409
384
399
412
423
451
428
455
435
468
470
451
480
448
476
463
444
489
446
473
468
472
470
465
465
470
460
472
461
448
448
469
433
425
483
423
419
449
438
431
448
433
460
448
419
440
403
415
396
403
423
415
476
455
438
496
447
460
423
385
303
255
527
480
453
463
427
448
423
449
465
440
448
427
422
432
435
451
440
435
428
399
431
384
385
398
387
380
435
401
451
459
449
500
492
489
463
487
445
459
444
465
472
462
457
475
470
457
455
449
496
465
435
439
472
455
420
467
472
455
448
444
479
449
449
480
423
448
443
448
455
444
429
463
463
448
488
484
461
463
376
294
393
575
499
473
496
480
440
462
491
444
445
462
475
460
467
460
457
483
454
428
433
409
393
377
416
396
380
436
384
444
463
440
451
449
460
457
480
478
440
484
481
435
472
476
457
465
451
476
455
467
443
468
433
451
432
476
460
459
483
457
468
443
438
472
441
439
448
449
439
433
403
440
457
451
451
478
449
460
463
432
401
323
295
588
536
476
491
516
483
472
504
441
476
487
455
436
468
432
440
470
409
415
452
412
391
391
425
428
386
399
467
446
435
451
451
472
462
432
487
449
463
460
435
433
448
467
460
444
454
432
464
438
446
463
471
435
470
440
456
472
425
463
451
446
484
444
433
463
454
427
440
438
412
407
444
446
446
463
451
454
462
462
432
372
268
304
511
515
463
463
478
463
435
495
478
459
455
449
470
435
438
448
455
433
446
419
423
422
413
414
415
406
414
455
448
435
468
454
448
455
476
455
456
473
441
451
449
457
476
460
427
455
463
446
486
460
462
455
448
465
464
423
468
460
440
454
457
472
440
429
470
455
415
472
419
439
408
376
418
422
432
432
444
467
446
458
452
433
398
332
235
483
518
428
489
440
476
460
444
467
455
428
440
448
427
438
423
428
392
395
418
387
374
387
368
367
384
420
448
449
476
449
471
455
483
455
480
479
459
473
463
476
467
451
465
472
462
424
440
455
467
483
450
417
451
433
412
446
472
457
463
457
470
444
463
467
443
435
454
455
467
475
465
448
463
484
462
408
371
302
433
549
500
496
467
465
481
487
472
491
496
478
494
476
481
480
478
454
452
441
412
391
399
396
375
422
414
412
430
427
476
404
433
444
435
444
428
423
435
448
454
433
468
455
441
449
475
455
467
483
462
463
479
460
464
476
460
490
449
462
467
462
455
441
455
408
415
415
432
428
440
444
451
432
463
465
455
387
337
265
476
556
475
492
511
480
476
478
480
483
487
451
467
454
462
432
408
463
412
415
435
391
417
371
383
414
387
408
428
423
445
451
472
454
450
487
448
492
481
457
494
463
448
496
463
448
472
451
444
448
460
439
460
436
433
433
417
440
427
442
436
439
457
412
419
455
404
435
403
406
412
425
460
455
480
483
448
499
480
420
404
263
339
561
492
465
457
486
483
448
472
442
473
465
434
460
459
419
457
463
433
431
436
425
423
408
403
398
428
425
423
440
460
438
465
459
454
458
463
456
460
463
470
459
447
447
472
460
454
436
487
444
446
457
476
460
443
448
454
462
433
448
446
435
466
438
459
454
434
428
415
444
423
399
423
451
453
443
473
472
471
435
459
440
341
307
269
510
471
459
463
440
459
438
430
433
455
422
438
428
444
441
425
435
440
425
435
438
403
428
433
396
409
437
446
446
468
478
440
460
443
446
476
419
432
487
440
419
455
459
449
420
425
496
425
463
456
460
422
462
464
443
463
453
453
439
428
455
460
444
457
452
449
446
425
414
391
439
439
416
467
443
435
445
472
465
411
368
267
344
572
499
468
460
499
462
472
476
467
478
451
438
459
444
438
472
440
443
407
427
422
419
412
409
388
408
440
444
408
502
475
454
491
489
478
467
460
480
483
473
515
489
496
487
451
513
496
455
467
492
462
470
459
457
480
460
433
472
443
443
444
411
422
431
428
419
404
427
428
440
463
449
439
444
448
408
351
281
438
558
487
496
494
472
489
511
476
484
481
473
481
476
489
476
480
469
433
432
409
393
408
398
387
380
376
417
419
457
467
419
462
484
457
463
457
455
468
483
451
472
473
462
455
462
467
454
434
471
465
471
473
449
454
467
423
448
473
463
468
455
461
448
462
434
419
435
401
438
441
441
457
444
448
448
462
444
459
399
289
268
499
519
475
476
481
480
473
448
455
462
483
448
475
446
451
455
443
451
415
466
443
391
393
412
380
419
423
419
465
417
446
464
448
463
480
444
435
455
472
460
460
448
433
475
433
457
446
472
444
457
456
441
463
455
463
463
451
463
448
448
440
479
460
449
452
444
416
415
399
448
448
417
459
441
454
464
455
433
435
352
237
329
548
494
449
478
472
486
459
471
499
460
435
470
459
449
471
451
440
444
447
436
431
419
422
415
380
416
401
428
438
448
439
440
443
455
433
433
472
462
465
433
457
465
403
457
473
448
444
432
457
438
439
440
432
444
428
414
440
412
444
444
427
399
433
415
391
428
404
391
440
395
435
448
460
467
470
459
481
468
462
449
385
291
329
568
492
475
473
475
472
444
487
448
447
472
422
430
432
440
427
440
420
403
400
385
366
419
415
398
364
380
422
467
470
476
473
472
463
476
491
468
455
472
440
481
480
447
508
532
494
476
504
512
495
479
480
496
455
477
483
466
496
471
476
471
440
486
418
430
432
412
476
468
454
451
440
448
464
444
415
332
323
536
529
475
484
492
480
432
476
480
455
472
470
473
451
472
423
417
457
425
417
430
400
391
391
391
395
372
440
432
411
435
388
404
428
416
399
390
408
371
391
396
412
427
544
675
535
529
516
446
504
473
483
476
463
468
413
451
472
444
460
432
450
444
387
452
462
420
437
428
455
463
440
468
448
473
468
446
379
275
293
496
504
412
452
481
476
467
460
441
455
433
473
430
444
444
454
433
423
467
465
439
436
398
397
419
411
417
480
434
443
417
451
433
451
468
455
439
431
463
459
440
462
435
476
423
423
451
483
455
460
467
471
440
435
484
463
487
459
475
476
435
447
444
440
436
412
423
449
452
433
431
460
444
436
473
385
347
239
312
540
451
463
483
462
500
489
447
464
464
455
455
485
476
446
425
427
420
385
481
438
427
432
412
411
420
409
408
443
398
419
430
420
418
434
436
449
417
451
436
423
465
457
456
441
440
492
472
445
483
486
441
455
464
463
438
437
470
445
458
451
422
444
432
447
438
411
444
455
433
432
423
449
451
462
396
339
259
359
547
457
494
472
459
440
455
448
463
420
436
454
448
446
433
449
448
432
448
431
432
435
401
412
414
405
454
497
462
488
476
483
494
483
465
444
444
422
478
435
435
476
454
460
441
431
441
451
423
444
487
463
466
476
448
448
419
423
392
387
345
384
401
401
423
424
422
447
428
411
440
435
406
308
484
627
525
521
512
493
472
492
457
480
487
471
476
467
487
462
444
411
408
396
368
396
408
401
443
438
487
531
529
547
561
509
496
481
448
487
494
492
449
472
405
433
446
448
443
411
392
407
387
391
415
406
463
447
451
432
423
476
462
454
449
470
454
440
452
462
487
487
486
530
467
472
519
425
428
387
257
408
615
531
487
505
519
472
473
480
479
465
463
470
440
465
455
435
447
423
376
352
368
399
395
440
462
425
423
432
428
440
452
457
476
436
455
446
439
457
473
440
447
447
451
432
484
416
395
417
399
388
399
436
452
440
463
463
491
505
503
460
478
446
460
440
413
431
443
432
441
472
433
462
480
446
423
359
275
171
294
459
385
369
391
395
401
413
472
436
492
472
463
456
414
423
428
396
444
430
416
432
446
438
449
447
481
454
497
484
459
483
448
457
470
449
443
435
467
422
443
434
425
446
430
423
446
455
452
463
497
519
543
572
583
627
587
622
608
492
480
553
499
446
467
468
455
431
431
439
425
428
428
444
463
481
472
408
408
348
327
252
455
527
478
464
460
457
476
449
446
444
463
463
465
489
472
443
438
433
386
432
420
398
390
359
371
347
361
379
361
406
396
409
364
391
412
411
384
435
417
423
403
391
430
423
439
439
438
423
467
475
446
486
512
496
433
431
453
463
439
444
432
464
441
419
436
454
476
455
420
435
436
443
433
391
341
224
270
478
432
406
440
428
424
473
484
487
494
505
519
510
497
489
459
420
454
450
448
418
425
441
406
427
440
496
471
476
486
488
481
497
491
481
491
440
487
492
478
467
505
472
463
460
440
481
436
435
451
435
448
444
451
468
443
489
463
460
508
455
473
472
455
452
415
448
451
457
455
463
463
460
441
448
419
363
270
300
556
473
412
504
480
457
472
451
431
455
455
441
463
447
419
444
420
391
417
420
390
416
419
412
387
403
427
440
455
451
463
457
480
441
456
470
448
455
476
444
435
432
440
465
444
454
435
438
451
428
451
463
494
477
449
452
467
436
454
473
460
444
454
444
428
467
475
472
460
470
445
428
457
415
384
299
201
494
499
463
480
435
468
499
472
492
499
460
483
505
486
451
440
444
432
438
428
448
409
408
408
396
406
460
476
472
455
448
467
463
462
435
476
477
449
462
449
451
507
480
476
494
485
467
486
498
456
472
467
435
463
465
474
473
408
430
414
413
428
380
419
448
403
435
419
455
443
459
480
473
468
476
464
385
327
334
528
552
497
503
504
449
489
455
414
391
414
348
380
363
359
391
401
374
383
408
433
408
352
393
428
380
359
404
393
401
415
432
432
412
454
428
455
446
460
478
444
473
494
439
428
410
463
419
401
436
434
427
413
416
444
431
423
480
446
417
441
433
472
470
475
487
467
476
478
428
430
388
304
318
519
483
436
439
461
478
446
430
463
481
435
449
467
461
455
457
440
480
487
448
465
438
432
408
411
415
415
444
481
433
463
472
440
478
480
472
512
504
505
483
480
465
433
455
465
463
460
441
457
454
448
460
473
462
448
460
445
459
435
454
462
431
423
455
455
460
454
484
447
446
472
444
438
391
348
231
434
513
440
484
493
446
476
472
431
467
487
460
451
462
440
404
451
425
415
456
390
422
380
396
423
398
444
446
439
455
435
472
467
460
487
440
446
458
446
467
438
462
470
444
424
454
483
440
391
493
443
433
459
447
441
435
437
460
468
448
425
451
414
424
448
428
476
463
432
449
464
472
444
432
414
244
259
496
481
463
472
449
457
463
483
451
462
457
451
487
429
451
467
441
432
423
448
423
393
444
403
408
412
415
457
423
444
455
457
480
430
483
460
419
454
451
452
483
455
475
467
454
443
451
497
440
494
467
449
479
471
443
481
478
462
475
452
448
451
463
419
449
414
412
443
432
477
470
468
483
444
465
467
430
408
315
316
568
481
483
480
472
480
479
475
455
440
449
467
432
415
441
447
436
402
419
423
399
440
438
377
398
371
425
404
424
441
473
478
428
463
467
427
449
466
449
444
408
428
433
451
428
440
464
451
422
435
479
448
472
463
472
465
448
472
451
455
435
423
448
435
473
473
455
480
435
463
476
415
371
295
384
529
476
465
456
494
449
448
476
451
465
460
443
455
446
446
438
435
429
412
401
420
396
399
396
402
412
423
444
454
467
476
462
444
499
472
455
463
481
452
455
486
467
463
459
475
451
415
489
460
451
446
455
440
468
460
467
463
467
465
457
454
470
455
441
439
443
457
486
489
463
451
481
451
446
412
361
262
390
564
472
439
496
446
464
484
448
460
487
444
473
448
461
467
432
467
446
431
435
402
416
408
415
411
423
454
433
441
452
467
470
435
435
454
422
465
465
455
432
448
465
433
457
468
448
449
444
448
476
448
472
441
455
475
455
438
467
465
443
444
462
448
416
422
427
450
468
460
457
475
448
465
448
390
313
265
408
555
476
476
486
449
480
467
468
491
470
457
462
439
476
440
471
423
432
443
412
409
412
423
415
407
432
435
441
444
480
467
454
467
463
483
455
460
443
455
463
462
472
455
454
468
433
462
464
472
466
460
473
452
476
454
471
484
472
450
473
454
479
440
432
408
395
432
396
465
440
428
444
454
428
398
369
304
279
534
499
439
473
471
470
467
455
489
462
456
460
440
495
419
437
449
439
399
391
433
432
379
423
391
423
376
395
448
452
428
472
441
460
463
486
463
448
476
463
460
439
472
498
431
467
448
447
441
449
457
446
456
467
457
454
423
467
433
423
451
438
396
428
454
468
466
457
475
467
467
443
417
364
276
439
543
493
473
440
444
480
463
448
454
446
446
459
440
452
444
448
440
419
419
408
398
478
422
400
422
414
421
449
463
460
480
467
472
458
480
460
483
449
458
463
441
444
480
452
483
451
440
472
468
483
475
484
455
503
493
419
463
491
448
422
399
371
332
252
231
163
143
57
0
0
0
0
0
0
0
0
0
249
487
440
537
566
601
612
608
592
580
524
465
433
334
287
291
187
134
123
108
0
0
0
0
3
19
140
236
331
385
512
540
563
625
639
668
690
691
684
704
715
743
732
759
788
745
719
742
749
742
760
713
748
712
723
704
679
711
705
679
688
665
675
611
624
601
583
641
639
620
577
568
590
563
556
534
384
347
475
572
531
510
480
484
475
481
441
443
479
423
403
451
427
419
455
461
446
452
421
455
427
433
451
415
472
524
438
531
553
560
536
551
579
543
568
550
507
550
516
521
487
518
536
480
461
493
431
481
451
448
415
409
364
403
403
384
312
396
328
268
295
308
358
350
358
398
400
423
431
423
399
310
312
214
411
483
477
487
463
585
600
553
700
732
755
760
786
820
737
806
732
751
783
719
743
694
679
701
714
699
633
649
625
575
524
472
518
500
448
515
534
508
542
468
504
483
348
368
411
435
412
428
422
327
355
344
290
304
255
265
235
199
255
199
181
236
209
216
225
192
216
233
316
259
275
198
171
351
419
352
412
387
391
344
403
358
431
374
391
363
366
372
352
268
279
295
284
315
255
283
284
280
275
271
303
342
395
420
423
441
460
511
474
480
455
568
496
494
516
539
530
527
556
649
657
624
615
713
668
617
704
625
643
647
687
700
696
713
768
812
758
721
726
679
641
603
532
495
391
355
553
508
452
415
443
428
435
436
411
425
443
441
403
470
503
451
536
524
543
541
542
519
495
400
470
348
385
389
352
375
399
408
385
387
425
403
380
435
487
451
457
504
476
446
423
438
475
422
409
432
438
374
432
475
531
513
513
551
492
452
395
368
268
255
184
169
47
0
0
24
131
7
0
0
0
0
0
0
0
0
0
0
0
44
56
31
135
102
62
89
81
71
118
99
124
188
227
335
332
376
419
432
384
352
396
376
344
354
364
366
411
496
559
639
716
771
863
862
863
924
952
910
952
963
1021
1021
1021
1021
1021
1021
1021
1021
1021
1021
817
777
999
880
801
758
705
680
598
551
556
523
523
508
487
563
560
536
560
561
560
564
543
514
515
524
497
470
449
420
387
355
316
268
184
168
162
110
140
68
12
19
0
0
0
0
0
0
0
38
88
93
83
89
49
0
0
0
0
0
0
0
0
0
0
0
0
108
276
364
861
960
984
1021
1021
1021
988
792
718
664
582
595
635
667
728
755
764
839
774
724
655
556
504
513
480
518
582
641
704
711
744
705
673
671
615
583
604
588
673
716
734
783
785
809
880
839
873
860
905
941
958
935
875
819
764
759
704
639
582
569
508
478
420
371
323
214
233
508
504
460
484
515
545
560
649
632
702
664
655
643
696
572
508
542
438
415
336
283
297
275
220
150
39
0
0
0
0
0
0
0
0
0
0
0
0
0
0
0
0
302
332
459
625
713
803
824
878
915
912
907
836
786
780
706
659
625
543
493
403
259
180
467
391
316
363
319
344
335
307
345
371
380
436
476
598
684
679
731
765
780
780
792
847
855
878
876
884
911
877
909
920
837
820
708
652
604
573
540
454
425
419
406
396
387
387
375
364
390
420
408
403
371
395
439
480
500
531
547
550
543
499
486
395
304
172
279
449
294
240
236
216
159
156
121
0
7
6
0
0
0
0
0
0
0
0
0
0
0
0
0
0
0
0
0
0
169
604
566
604
632
639
655
724
726
711
675
691
675
615
502
519
502
473
455
446
489
528
632
707
739
780
836
852
871
860
864
817
737
679
883
990
891
902
892
888
856
844
796
796
798
777
780
760
743
723
696
677
643
614
572
531
484
472
455
422
423
399
399
438
396
390
388
384
355
318
317
286
302
305
280
240
286
275
255
285
323
227
295
329
318
344
369
312
319
321
315
241
195
106
0
0
0
100
111
19
0
34
48
71
99
124
131
145
169
199
225
305
324
367
432
428
474
476
519
504
531
575
537
636
558
591
560
455
514
482
364
303
143
87
57
56
48
204
247
391
480
550
568
492
511
651
603
704
823
819
857
972
1021
1021
1021
1021
1021
1021
1021
1021
1021
1021
1021
1021
1021
1021
1021
971
775
739
684
711
625
519
441
399
332
267
180
118
145
56
71
127
129
163
252
273
349
432
465
500
535
593
585
639
604
644
641
630
568
588
578
514
531
527
499
476
464
444
409
387
387
398
390
372
359
369
237
172
77
0
0
0
0
0
0
0
0
0
0
0
0
0
0
0
96
132
153
143
180
177
168
172
196
185
183
257
259
319
396
409
427
448
531
523
536
579
558
588
575
642
651
596
652
604
564
560
481
504
463
444
459
475
527
492
523
575
563
615
662
678
659
591
583
838
891
772
764
783
793
796
799
809
790
760
707
692
615
599
583
524
515
455
465
494
451
443
403
419
437
419
432
455
476
463
448
451
412
406
412
388
439
411
396
406
412
396
393
376
348
327
312
359
352
364
396
382
417
428
463
448
403
376
262
347
540
390
348
317
265
211
142
99
55
30
0
0
0
0
0
0
0
0
0
0
0
92
111
146
289
368
455
563
655
734
799
830
887
889
916
924
854
880
875
831
852
816
829
785
752
743
676
686
726
671
646
615
603
600
560
523
496
491
303
240
454
483
361
359
339
306
249
300
267
284
312
308
408
433
455
547
560
622
630
615
652
651
638
644
643
672
587
655
647
606
604
577
545
568
499
494
424
411
398
339
336
312
294
263
252
249
195
184
185
226
252
220
243
231
280
232
202
214
158
105
28
240
356
236
280
292
352
345
355
438
472
499
540
551
608
606
620
651
600
646
643
595
620
639
601
551
541
525
547
572
550
550
547
531
519
532
556
563
583
614
587
636
617
612
600
593
587
588
535
541
566
540
507
472
427
371
327
295
227
155
63
35
231
408
323
368
399
477
508
547
600
608
582
641
638
675
662
659
679
655
620
591
571
543
497
467
430
425
387
371
372
344
350
320
312
316
305
312
259
295
263
329
329
365
428
359
358
339
274
271
222
254
278
241
223
219
204
156
121
167
103
36
0
241
374
263
348
401
377
449
473
513
579
588
639
671
729
766
798
835
822
851
775
785
783
740
727
755
793
754
787
825
833
839
856
830
830
824
835
819
806
768
743
749
697
681
652
679
620
597
572
523
454
371
400
327
249
241
204
156
147
174
91
38
0
35
211
143
92
88
78
18
0
0
0
0
0
0
0
0
0
0
0
0
0
0
0
0
0
0
0
0
0
0
0
25
255
515
601
627
588
460
415
396
319
167
163
110
113
97
167
115
139
163
135
48
52
0
0
0
0
0
255
455
593
851
956
972
1021
1021
1021
1021
1021
1021
1021
1021
1021
1021
1021
1021
886
671
753
707
603
655
537
542
466
444
398
309
236
268
243
224
259
281
277
355
292
328
433
452
504
536
623
671
764
878
902
950
1003
1021
1021
1021
1021
1021
1021
985
918
951
924
876
860
812
755
710
603
527
428
295
508
547
439
432
386
420
435
419
427
433
444
483
492
512
537
527
524
542
499
487
515
446
403
411
351
363
348
356
379
387
396
335
355
359
327
335
327
319
334
316
345
339
355
336
343
361
360
369
397
356
384
430
414
423
432
451
447
496
492
495
505
497
444
451
403
281
211
399
508
443
423
404
406
319
382
359
355
355
356
329
352
391
319
338
334
335
331
332
323
343
352
367
369
353
356
384
391
373
361
367
339
352
348
307
379
352
353
307
359
355
356
411
439
443
481
481
473
476
460
428
387
417
448
440
472
496
499
527
541
543
553
499
388
387
702
664
630
692
684
689
681
700
647
621
596
551
551
530
472
480
455
428
399
391
338
319
254
265
303
331
376
412
446
486
531
499
526
536
529
519
502
519
498
495
519
531
536
492
496
466
460
460
408
408
408
388
399
387
355
355
338
339
353
327
268
167
97
193
454
383
339
359
380
396
398
408
415
399
376
384
396
376
363
354
327
297
300
294
252
199
222
252
216
248
276
260
312
382
352
379
440
447
411
529
513
545
561
579
583
563
562
583
575
523
568
575
583
600
591
625
689
691
716
787
719
775
764
760
738
671
543
638
747
655
601
563
527
481
444
412
368
323
294
239
216
159
135
174
156
187
177
199
201
236
231
248
287
294
321
409
400
457
451
537
585
586
627
619
633
620
628
623
647
615
589
591
571
575
526
503
508
467
414
376
369
352
335
347
359
353
339
369
391
319
255
169
339
502
387
385
387
360
354
342
312
319
347
320
368
381
399
387
376
415
415
401
384
399
393
338
339
371
371
399
455
444
483
479
485
467
510
497
510
512
509
508
500
496
531
527
534
550
622
647
671
716
664
659
700
671
747
694
668
675
648
591
572
523
470
345
190
276
423
295
262
263
265
274
283
279
304
300
359
398
363
387
423
422
431
473
462
476
449
468
463
483
451
441
497
524
504
513
535
536
513
534
543
535
534
500
449
487
415
399
379
396
352
291
307
272
249
188
278
291
312
344
304
369
419
430
448
448
422
327
278
505
572
462
487
481
403
441
440
443
423
492
444
487
463
463
487
443
440
399
399
368
348
323
329
329
352
352
391
381
417
455
451
481
507
500
523
560
572
603
638
657
689
707
766
787
738
743
736
729
664
632
604
551
563
534
583
564
545
539
480
489
510
514
473
440
356
419
680
611
600
540
536
543
507
475
444
472
423
423
448
425
431
428
451
412
462
432
412
408
408
385
361
380
364
392
380
399
390
399
369
372
379
399
382
400
421
420
438
430
471
493
444
440
467
463
455
396
427
376
398
404
397
352
387
318
287
299
304
238
249
145
220
496
403
387
415
398
407
409
399
368
367
375
352
297
327
351
295
275
246
219
216
204
126
135
118
69
127
127
131
184
247
302
305
391
481
504
579
619
649
705
721
734
763
768
755
729
704
710
704
660
633
615
608
583
558
550
551
511
504
504
468
440
415
303
339
545
595
495
463
510
517
511
511
543
543
540
542
535
504
536
511
480
497
476
513
487
489
472
448
384
419
382
353
368
377
391
348
323
349
335
355
363
423
382
391
436
415
448
449
425
446
435
440
487
473
455
436
414
457
448
455
444
452
468
436
403
352
326
283
199
273
489
448
408
435
440
403
405
427
384
385
409
403
353
376
310
305
339
340
327
312
348
363
349
332
324
367
385
428
440
467
504
553
551
608
592
592
598
600
595
593
585
544
575
585
560
556
540
543
537
550
545
531
596
643
671
678
718
659
617
632
636
565
499
427
449
622
579
519
487
451
451
403
415
415
415
429
415
447
432
396
399
409
403
337
369
371
316
351
364
348
339
364
412
440
449
489
521
539
481
486
481
448
444
422
396
395
380
355
372
312
276
278
270
264
248
292
264
255
292
308
235
243
227
231
225
172
113
224
451
376
355
374
334
380
393
435
463
483
547
517
487
540
565
547
611
600
579
561
579
568
611
572
564
595
563
575
564
535
585
575
585
598
627
575
572
575
551
575
608
560
590
603
632
636
632
617
571
519
496
484
527
512
496
484
435
415
408
374
395
316
239
182
263
505
391
462
440
441
459
435
457
475
451
455
455
463
471
462
453
463
428
391
393
412
391
396
344
352
344
348
348
363
352
345
355
353
355
340
342
337
355
359
335
335
403
345
408
412
430
430
436
408
395
379
342
313
352
305
272
287
240
236
254
259
252
168
136
147
468
409
408
416
428
504
504
519
583
615
624
649
664
739
707
716
751
699
719
737
684
675
665
679
679
647
678
617
631
619
608
579
575
545
504
512
487
465
452
409
359
406
388
387
384
391
377
377
384
391
384
355
342
384
375
366
376
355
356
380
384
387
326
271
152
335
461
295
249
174
127
120
76
62
94
71
39
89
108
155
132
132
185
183
161
188
199
230
252
268
323
356
364
412
403
415
441
390
412
428
409
428
457
420
462
453
459
433
458
470
412
435
508
486
475
496
472
472
477
462
440
423
413
433
454
403
263
160
275
476
368
388
380
395
428
446
492
563
643
701
760
830
801
839
820
797
766
719
700
659
638
609
558
545
536
551
531
513
473
473
435
393
383
295
358
344
321
374
439
459
499
504
513
575
526
535
542
534
547
491
504
587
604
585
652
625
653
670
670
662
579
471
411
636
723
615
627
628
643
704
646
662
689
659
647
615
647
638
570
583
639
615
624
615
609
639
595
606
568
583
591
563
574
542
583
568
575
563
537
510
499
515
473
473
462
435
427
460
422
447
433
403
432
387
355
368
393
384
356
376
384
359
368
348
337
276
166
207
475
412
317
376
395
376
391
397
403
393
409
407
413
415
416
439
438
428
444
449
435
436
444
408
390
423
419
422
406
422
419
419
433
455
455
431
472
457
443
444
435
487
457
473
470
511
481
502
492
491
511
496
574
583
560
536
547
524
537
486
448
398
287
487
615
459
462
438
423
412
395
396
374
351
369
319
304
304
305
307
321
313
316
307
302
319
319
318
302
299
300
332
331
316
371
363
377
356
372
375
412
393
398
419
422
414
443
415
441
460
492
457
467
464
484
542
572
509
516
544
502
518
508
508
403
312
386
615
553
518
500
483
482
455
508
451
443
465
440
403
428
421
384
419
417
384
412
363
349
403
353
313
337
307
319
349
356
359
366
387
415
418
415
436
435
460
448
430
455
449
454
434
446
468
471
454
478
487
518
544
552
559
566
615
561
601
577
551
465
321
536
696
560
540
508
498
521
480
452
457
453
451
412
415
399
385
364
353
356
331
356
368
323
297
355
324
335
327
348
337
353
335
295
329
331
366
327
375
419
433
460
484
462
492
486
473
497
524
512
524
483
550
562
566
543
542
551
551
529
487
483
356
271
240
503
534
454
440
451
457
423
433
435
440
459
475
472
496
481
465
446
439
425
415
385
403
403
396
401
399
391
396
422
438
441
420
454
446
467
403
439
421
408
411
414
439
436
439
460
491
476
481
519
512
573
563
566
604
596
575
569
569
560
448
352
528
643
540
520
524
467
496
460
402
393
379
363
348
327
310
312
299
304
284
236
280
259
263
284
260
280
310
310
329
337
352
368
406
380
364
385
411
401
423
436
398
456
440
471
504
487
519
557
567
568
627
637
639
615
590
579
591
551
507
403
332
604
590
511
535
525
519
504
519
517
507
520
508
528
479
459
472
428
433
435
379
363
355
308
296
299
259
283
259
309
281
331
391
382
397
385
454
455
441
480
470
480
475
470
522
529
537
535
499
523
588
601
575
591
600
583
550
518
497
423
300
344
600
535
476
478
463
486
414
423
435
427
403
435
349
440
366
387
391
392
361
325
304
321
310
289
312
316
307
337
326
345
348
355
368
294
339
340
347
376
368
415
446
435
455
505
463
481
487
512
542
536
568
515
532
560
536
553
558
467
348
318
527
585
508
536
553
524
496
476
476
467
460
460
449
419
450
419
384
417
421
398
401
419
411
337
366
376
405
399
435
428
419
422
423
414
432
440
455
428
439
454
459
467
511
512
551
492
528
540
513
536
550
487
499
527
518
496
463
428
312
312
527
553
508
496
504
512
465
455
476
435
415
385
379
376
342
345
376
391
372
364
391
382
371
396
348
344
364
371
391
387
384
380
387
397
342
371
380
368
358
408
391
369
383
367
360
393
365
315
395
409
411
403
441
423
449
505
460
419
374
275
457
639
575
567
615
641
627
633
651
669
652
638
665
655
659
614
614
593
591
575
491
515
510
495
481
473
484
467
494
486
472
470
477
477
473
451
443
453
449
445
455
467
423
489
432
419
469
425
415
415
460
470
480
465
473
463
459
463
472
412
281
220
438
523
440
435
423
444
445
428
428
420
441
412
417
449
422
428
412
415
460
403
364
401
376
350
384
366
398
392
440
398
431
463
448
463
452
478
439
454
465
432
425
432
417
403
422
429
423
385
403
391
372
388
440
448
415
452
457
396
415
435
411
346
251
192
423
492
366
409
412
401
359
391
391
374
359
384
387
422
409
427
430
455
441
444
455
471
487
487
480
529
543
531
577
548
579
596
590
583
558
580
555
551
519
540
526
519
511
481
479
467
438
472
437
429
375
403
419
428
431
439
473
419
427
476
430
401
334
268
470
551
454
476
496
443
491
444
440
438
460
472
424
465
440
431
409
436
416
387
409
390
414
397
404
443
432
446
460
508
485
463
455
478
486
467
473
465
428
441
451
420
438
448
438
432
435
414
374
371
415
428
407
387
441
436
415
480
407
390
384
255
211
469
456
375
388
371
368
399
359
376
412
408
449
451
437
463
500
455
487
487
477
478
465
452
480
483
492
527
496
527
507
542
547
478
489
489
495
491
475
481
460
463
465
459
403
440
481
428
435
404
455
459
412
427
428
430
460
453
462
432
432
442
463
429
409
352
206
448
543
419
457
478
480
476
487
508
492
460
478
480
480
472
478
476
487
484
451
459
470
459
459
478
419
476
451
446
463
444
451
459
460
451
446
451
464
409
399
423
382
375
427
419
419
423
418
425
399
413
399
396
391
380
361
353
414
440
393
415
430
412
435
423
425
401
301
216
423
579
468
515
502
515
495
499
484
508
483
508
463
519
504
459
487
455
417
463
454
435
460
399
423
417
408
463
433
460
454
475
486
463
492
499
470
475
492
492
451
483
454
460
441
419
416
432
387
414
368
409
423
345
412
448
464
472
455
508
495
494
513
505
455
403
304
499
636
540
531
566
519
515
558
508
500
508
489
507
486
463
455
440
444
419
396
409
334
339
340
350
332
342
368
376
438
398
423
453
438
448
454
435
432
435
432
430
423
369
409
396
388
364
404
393
368
374
380
440
386
420
448
447
439
508
492
462
455
353
327
551
652
547
568
591
566
551
551
540
590
560
529
536
511
489
487
476
455
435
441
449
451
439
345
435
455
441
441
441
457
482
497
447
459
455
412
448
451
440
440
401
451
483
467
455
455
481
465
464
460
471
431
460
474
455
492
500
527
504
499
518
498
480
398
344
425
606
515
497
504
532
519
528
517
518
510
547
542
499
493
503
519
471
448
439
464
433
414
403
423
408
351
399
420
363
380
384
342
363
332
321
290
287
295
226
241
258
224
255
252
300
284
307
327
339
329
382
401
408
489
535
531
556
572
588
601
612
575
560
457
440
719
673
595
668
639
644
627
595
582
600
587
587
534
561
536
508
536
499
519
518
492
512
519
551
521
519
550
559
563
545
568
558
551
543
534
508
489
419
476
432
414
412
387
391
369
352
368
347
305
321
300
268
225
241
295
237
219
236
236
216
243
216
150
95
44
259
351
279
292
243
313
303
307
339
287
300
287
295
291
303
311
260
260
255
246
271
255
246
240
248
240
263
254
294
316
327
343
344
323
356
350
355
348
348
350
348
352
364
350
324
326
327
338
263
248
259
291
271
271
295
304
263
270
284
236
182
95
48
287
280
225
224
241
254
259
252
280
279
268
313
286
270
304
295
281
321
307
318
352
335
348
371
357
399
425
440
451
463
487
540
575
631
657
695
726
737
799
807
847
796
830
835
870
883
899
924
948
929
969
961
979
982
972
945
959
953
882
939
781
688
658
833
894
769
775
772
732
710
704
703
644
639
638
627
599
575
587
560
542
553
527
520
463
481
464
462
480
468
476
494
512
451
455
483
456
464
455
489
448
443
448
404
444
444
422
423
419
415
399
380
368
364
396
430
415
435
371
406
419
395
364
390
259
152
300
508
414
399
443
440
411
412
440
455
427
440
472
432
456
457
480
476
440
494
438
448
465
450
457
460
460
473
495
473
492
495
491
459
463
472
441
472
473
461
432
432
440
427
387
416
364
380
366
355
344
323
364
355
393
342
411
376
385
388
364
332
251
167
332
502
402
396
415
409
408
412
415
411
398
407
438
440
444
452
422
428
417
412
416
431
423
390
428
415
438
459
468
496
505
473
476
470
472
504
480
487
480
467
451
470
472
454
471
436
445
415
396
448
440
431
451
447
455
454
435
409
384
366
255
228
448
487
423
431
433
435
407
408
448
423
415
428
448
403
424
416
423
409
415
429
408
399
415
414
415
448
433
462
495
491
459
510
483
500
524
497
515
499
499
511
492
473
470
475
483
483
476
499
451
403
393
448
415
428
414
411
415
428
415
455
352
235
232
462
468
440
431
417
411
432
433
395
451
411
415
460
451
435
438
399
439
384
419
404
377
431
414
391
460
448
452
465
480
511
499
463
464
496
446
486
455
435
463
463
448
467
463
455
472
467
423
479
408
399
396
400
460
487
462
455
497
408
398
407
387
291
185
304
556
476
454
467
448
428
467
434
448
464
441
480
504
472
455
464
448
432
422
432
422
417
463
425
433
448
463
497
512
508
497
542
534
536
551
488
561
536
514
503
543
510
518
526
510
508
423
476
427
391
419
416
379
359
424
446
420
415
408
423
422
413
399
366
307
204
244
504
413
408
411
415
422
406
396
414
417
423
438
434
432
449
463
472
494
492
465
479
470
470
460
487
472
496
575
524
504
494
467
504
508
480
504
536
485
472
430
451
417
448
408
404
454
423
417
440
438
307
294
380
300
337
364
398
419
451
467
473
416
334
364
520
568
496
473
512
505
492
512
462
462
481
432
441
452
431
431
415
477
460
424
476
510
487
502
494
507
508
536
527
532
535
550
512
529
516
502
470
464
463
408
440
508
369
321
352
353
403
391
408
310
287
339
380
470
510
524
561
641
625
583
622
579
444
406
440
585
487
447
443
428
430
467
492
505
446
435
416
424
436
496
563
579
543
600
508
496
463
483
462
483
460
478
568
504
487
575
579
547
604
639
627
601
563
511
423
415
391
419
482
521
498
417
387
371
278
280
308
350
406
463
470
457
459
446
427
417
371
379
361
268
220
252
508
384
336
371
348
336
327
339
384
358
391
408
396
431
465
504
487
496
515
491
486
448
432
460
423
432
450
451
448
487
487
550
572
553
556
482
499
467
441
422
419
440
430
423
460
468
427
412
423
422
473
545
514
504
455
452
399
428
387
359
355
329
369
325
323
275
207
444
515
399
383
361
343
359
368
388
385
367
409
429
433
390
440
435
411
443
412
422
478
487
503
561
594
588
619
653
684
636
652
647
614
558
502
518
427
420
398
364
319
315
255
287
299
337
395
451
483
534
531
550
607
572
571
611
593
536
574
551
483
458
369
376
622
566
508
534
532
526
547
547
555
528
519
518
515
496
531
493
494
471
437
423
423
412
403
385
419
384
384
362
368
358
390
338
364
371
351
352
371
376
391
372
415
434
435
455
480
460
440
460
441
455
443
444
444
455
480
492
487
477
487
467
455
448
449
388
323
263
483
524
468
463
448
439
440
438
433
374
379
374
352
339
314
332
302
316
292
251
270
307
335
287
319
313
327
376
348
419
396
428
465
508
508
551
577
608
588
625
631
648
662
654
719
731
694
686
670
625
579
551
531
503
457
449
492
460
483
504
478
480
496
459
460
403
247
419
614
510
467
455
476
454
419
431
437
414
463
415
415
408
409
398
415
419
433
395
411
411
380
295
279
294
334
399
423
398
431
409
398
354
377
364
403
315
332
376
401
391
385
382
380
372
390
396
428
413
383
417
363
357
399
419
464
499
558
563
606
635
739
1014
753
399
355
575
603
532
543
540
494
495
499
518
483
451
487
519
515
531
543
519
521
472
460
422
403
356
342
300
347
363
390
304
280
313
380
515
508
420
385
351
329
337
366
399
452
527
591
555
543
504
486
496
574
579
615
593
566
551
487
476
451
417
396
319
242
211
419
436
323
280
372
423
412
511
577
527
505
527
505
480
449
443
406
385
372
375
344
351
350
292
316
369
417
403
440
491
476
431
382
504
553
447
518
591
564
571
547
490
459
391
414
371
408
441
415
403
438
476
480
515
486
511
513
478
513
489
444
355
319
574
606
556
560
519
521
524
521
512
496
472
448
448
444
435
452
412
428
374
352
348
331
243
216
193
204
159
186
270
291
340
364
374
414
412
399
375
331
308
252
171
204
271
319
462
566
585
532
563
528
575
595
598
540
444
403
498
523
512
499
376
271
337
547
483
487
617
638
664
568
537
543
502
531
499
510
487
449
425
399
340
300
291
286
252
231
300
348
326
356
457
504
527
600
569
497
575
564
472
489
468
456
435
428
432
467
458
502
487
487
504
560
536
512
561
494
504
495
480
446
391
325
275
487
589
494
527
531
527
511
534
526
487
499
472
460
425
427
430
420
417
391
382
376
339
311
289
211
198
195
309
359
384
428
434
472
415
428
423
423
419
409
403
391
368
348
316
278
115
99
244
388
463
508
543
578
615
582
575
560
469
345
255
316
511
415
415
470
492
492
511
547
546
568
545
518
563
556
521
543
551
547
543
503
467
446
422
391
370
359
319
313
259
211
294
393
387
432
436
398
359
330
369
441
455
508
507
513
527
511
481
504
472
480
504
524
551
521
524
529
518
487
487
428
312
230
397
579
488
483
491
496
497
524
537
536
545
531
529
563
526
543
540
492
508
499
492
472
505
482
463
481
470
472
483
472
439
417
440
417
425
396
335
358
332
337
327
352
387
418
352
403
376
316
288
286
266
214
195
211
214
268
345
311
303
327
329
287
259
215
107
0
207
332
248
295
312
334
408
412
448
504
550
543
608
652
684
684
697
694
662
655
647
630
622
599
561
547
489
507
459
486
521
515
527
558
567
585
615
625
636
615
583
560
511
435
359
332
313
285
311
281
291
289
348
463
527
575
585
601
604
643
644
595
519
418
386
585
592
515
504
499
543
487
527
500
518
593
604
627
660
688
655
639
611
556
524
481
427
380
355
333
300
294
291
315
319
327
323
323
337
315
351
390
401
427
460
483
504
510
551
543
539
519
562
540
513
524
512
504
496
487
451
455
433
384
388
376
321
177
119
323
423
295
281
318
271
295
295
284
275
262
260
239
221
217
225
270
249
255
251
286
323
349
344
391
491
478
504
531
464
446
486
470
428
368
359
308
257
291
239
190
187
199
201
182
184
216
262
243
263
257
211
215
311
263
246
283
281
316
374
326
369
440
326
344
327
254
150
57
376
401
224
172
121
94
127
183
380
465
659
617
472
435
344
393
417
451
467
511
473
481
777
1021
1021
1021
1021
1021
1021
1021
1001
403
359
267
203
205
216
178
230
305
384
492
687
850
820
902
904
960
1008
896
888
907
989
929
1008
957
733
673
736
691
179
0
0
0
0
0
0
0
115
403
508
432
313
369
416
263
199
231
224
134
188
195
319
380
393
385
543
787
844
620
624
399
435
676
524
483
551
662
632
625
624
668
632
598
608
476
342
179
0
38
0
0
0
0
0
0
0
102
0
0
0
0
51
136
152
201
425
600
690
745
627
0
281
975
1021
1021
1021
1021
1021
1021
1021
1021
1021
1021
1021
1016
779
604
660
723
721
1021
1017
1021
1021
1021
1021
1021
1021
1021
1021
1021
1021
927
452
379
354
404
452
476
364
323
293
223
203
243
135
153
108
0
0
0
46
67
0
118
70
51
103
179
51
29
216
131
48
65
71
72
0
363
420
220
260
238
193
192
248
77
143
542
907
769
873
756
903
737
536
633
496
448
348
329
399
368
481
575
671
568
476
566
504
606
534
487
263
184
62
0
0
0
0
102
100
271
376
519
670
854
987
876
675
472
444
281
172
300
422
617
664
696
811
683
734
639
527
587
771
795
775
632
472
310
0
24
279
415
355
470
436
588
412
297
0
0
92
425
444
504
527
451
391
327
344
436
465
448
423
366
384
419
443
502
380
615
527
499
671
291
480
444
333
440
427
354
473
416
216
302
397
347
318
448
663
772
833
847
657
655
591
342
323
80
143
99
15
255
467
395
543
568
446
379
382
428
376
483
342
176
315
457
617
496
508
583
487
435
323
270
409
278
191
260
270
323
295
240
201
390
316
204
295
227
335
284
278
367
371
327
312
319
255
344
373
232
35
0
51
220
219
326
367
487
647
547
478
473
519
465
316
391
220
263
62
79
432
420
443
348
243
344
419
352
407
398
540
784
596
513
435
291
553
479
355
478
598
444
467
355
396
352
305
368
344
484
434
399
355
559
488
483
388
206
415
449
224
125
257
127
106
76
248
167
417
112
243
91
329
271
372
476
308
324
547
280
572
584
639
1021
752
507
795
671
836
750
563
236
585
817
684
670
796
940
1008
1021
961
790
625
711
612
279
316
726
657
384
509
539
285
444
289
185
103
180
268
318
286
179
353
327
451
422
17
125
43
0
0
0
0
0
0
0
0
0
0
0
222
411
384
457
553
522
539
647
371
452
451
113
417
711
867
471
406
512
572
743
668
686
704
793
635
852
915
752
847
696
292
344
387
304
251
224
279
278
263
280
419
348
608
639
609
695
632
647
572
572
508
667
544
95
0
0
0
99
30
17
263
370
455
639
643
659
607
637
693
601
655
608
515
568
448
545
551
486
339
543
568
524
512
541
556
577
627
615
572
472
577
583
519
460
612
440
551
611
636
604
527
558
752
664
811
759
580
704
472
334
322
340
484
367
356
492
367
483
448
531
639
446
412
422
454
472
508
431
368
415
502
707
711
726
807
792
833
959
822
624
416
305
128
176
223
150
148
271
566
494
454
312
295
203
310
230
126
367
352
412
540
567
428
487
340
82
159
101
158
126
329
422
611
574
973
1021
1021
1021
1021
788
683
711
803
920
1021
1021
1021
1021
973
766
633
636
579
627
685
743
755
808
703
665
625
518
604
553
647
593
551
558
527
449
660
579
403
345
341
441
684
496
574
551
463
487
553
566
590
593
572
623
524
547
460
411
472
524
560
596
521
492
295
219
323
156
451
583
216
12
0
0
0
0
0
259
531
327
632
700
627
918
647
850
1021
1021
1021
1021
1021
1021
1021
1021
828
671
635
451
385
280
352
303
348
246
233
137
184
324
564
513
470
568
652
728
812
839
883
839
676
620
579
432
440
408
332
326
356
319
352
339
352
342
252
127
87
108
98
159
211
435
665
952
1021
1021
960
993
889
844
1021
1021
1021
1021
969
907
982
761
479
327
248
329
263
303
227
217
255
199
131
91
88
35
47
143
61
0
0
0
184
66
71
40
0
22
0
0
0
0
0
44
151
0
0
0
0
0
0
0
0
0
0
374
670
492
828
732
672
684
566
429
478
518
587
565
760
836
1021
1021
1021
1021
915
652
508
480
551
579
521
551
463
412
444
371
291
263
322
422
422
368
409
472
412
396
411
337
259
212
190
375
479
398
444
492
515
598
663
705
684
737
809
812
704
581
464
472
496
524
632
564
423
349
345
273
257
259
303
225
209
224
248
265
249
286
284
300
265
276
287
310
263
240
252
270
147
211
207
179
254
152
177
185
172
230
275
280
260
307
274
359
380
295
231
164
222
487
417
420
434
472
448
492
524
569
508
508
519
502
463
444
441
403
393
376
364
397
337
384
377
396
448
448
443
496
478
475
492
455
478
467
440
459
451
423
455
463
472
455
471
440
446
399
369
339
268
257
214
190
131
91
0
0
0
0
0
0
1
151
97
96
121
73
36
258
374
231
251
220
287
366
355
387
440
377
415
449
504
596
571
567
553
556
518
472
564
649
644
700
728
681
687
662
596
606
628
679
702
675
636
652
585
596
572
519
508
492
464
472
484
472
478
432
376
363
344
299
353
377
353
359
344
271
291
315
315
316
223
152
121
287
319
108
57
42
150
323
414
430
455
452
508
527
572
530
494
511
440
480
550
543
496
455
412
407
417
492
568
563
601
560
547
590
704
764
804
828
780
766
799
743
744
702
652
523
391
289
143
103
145
152
233
408
515
579
683
759
748
863
956
968
847
675
536
575
791
532
444
476
512
569
851
1021
995
738
620
470
396
380
348
327
147
216
327
359
357
158
0
0
0
0
0
0
0
0
0
135
248
332
332
236
239
344
483
547
525
491
476
382
268
460
664
757
927
920
752
639
600
498
411
295
260
425
483
519
399
127
0
0
0
0
123
472
558
784
771
558
385
316
307
393
512
655
891
1021
1021
1021
1021
1021
999
732
718
670
628
639
662
686
696
639
604
639
543
401
423
438
437
423
422
428
374
295
284
326
300
371
318
324
326
372
444
465
380
321
356
403
484
551
512
472
395
291
148
135
313
103
0
0
0
0
0
0
0
0
0
0
0
294
272
203
396
524
639
759
771
719
686
743
755
665
564
572
563
707
872
871
801
743
604
508
452
384
315
319
321
248
142
38
0
0
0
0
0
0
0
198
891
905
806
655
487
455
411
440
649
889
940
1021
1021
1021
1021
1021
455
239
291
210
337
428
529
596
615
707
689
650
633
639
624
575
511
467
391
388
492
590
600
643
575
486
463
406
353
348
393
379
404
377
318
280
243
199
162
172
146
117
127
176
184
248
380
472
536
588
625
651
631
507
384
289
116
0
0
31
332
263
264
352
483
519
600
603
595
607
620
558
551
555
542
527
551
518
460
387
302
240
204
238
303
391
424
451
492
542
537
563
513
540
569
558
568
575
641
582
575
608
601
556
548
542
524
478
472
440
444
478
417
419
472
425
377
367
368
327
358
403
323
190
425
496
260
175
139
70
38
49
121
167
207
271
369
376
417
536
865
975
873
1021
1021
1021
1021
888
452
404
323
167
368
784
1021
1021
1020
844
740
595
479
425
310
259
288
307
291
236
204
262
343
440
483
531
579
636
588
492
327
153
119
83
60
63
0
0
0
0
0
0
135
315
412
583
728
779
839
807
803
887
915
920
876
781
747
655
551
438
406
464
440
332
138
0
0
0
0
0
0
0
76
208
332
440
492
489
457
413
352
408
344
300
238
263
347
377
377
423
470
499
523
504
487
496
472
450
457
411
344
242
271
489
502
313
235
145
8
0
0
118
348
508
809
1021
1021
1021
1021
1021
963
743
664
455
297
432
585
768
1021
1021
1021
1021
1021
1021
1021
1021
1021
949
816
743
617
600
556
585
603
565
401
295
191
24
0
0
0
0
0
0
0
0
0
0
0
0
0
0
1
172
171
24
134
295
211
0
0
0
0
0
0
72
119
158
211
326
489
536
534
582
527
491
316
359
481
387
478
563
553
627
668
681
623
668
675
639
655
685
688
679
652
675
664
659
649
711
606
630
622
575
631
560
624
622
598
655
632
585
543
596
585
531
572
432
399
294
60
172
220
2
332
404
496
692
815
780
620
623
582
595
719
670
593
536
527
560
460
436
505
480
384
433
433
472
480
536
529
519
542
587
536
539
630
510
659
651
583
652
583
615
560
571
572
551
521
531
684
575
548
431
386
432
425
547
551
497
464
551
740
638
611
583
428
275
255
504
558
498
632
555
551
583
662
728
684
729
511
391
531
508
465
527
606
555
556
504
408
441
380
243
382
356
366
384
459
403
483
492
395
281
368
435
444
444
451
480
473
543
434
422
551
540
551
598
536
575
568
624
649
691
639
695
696
624
664
643
547
664
595
500
494
550
451
337
289
292
559
492
471
479
507
490
435
702
894
713
772
560
413
483
540
583
470
316
280
229
380
263
190
188
144
263
308
454
451
543
782
690
751
871
703
723
696
438
427
439
496
358
455
335
352
446
524
548
502
388
519
715
790
1007
1014
953
907
916
903
992
1016
1011
1021
1021
1021
1021
1021
1021
1021
974
839
892
751
620
812
1001
838
942
927
1021
1021
1021
972
1021
1021
1021
1021
1021
1021
1021
1021
1021
1021
1021
1021
1021
1021
1021
1021
1021
1021
1021
1021
1021
1021
1021
1021
1021
1021
152
0
0
0
0
0
0
0
0
0
0
0
0
0
0
0
0
0
0
0
0
0
0
0
0
0
0
0
0
0
0
112
192
123
0
48
318
177
30
92
150
308
273
223
299
481
510
524
486
540
732
726
643
948
831
982
1021
1021
1021
1021
1021
1021
1021
1021
1021
1021
1021
1021
1021
1021
1021
1021
1021
1021
1021
1021
1021
1021
1021
1021
1021
1021
1021
1021
1021
1021
1021
1021
1021
1021
1021
1021
1021
1021
1021
1021
1021
1021
1021
1021
1021
1021
1021
1021
1021
1021
1021
1021
1021
1021
1021
1021
1021
1021
1021
1021
1021
1021
1021
1021
1021
1021
1021
1021
1021
1021
1021
1021
1021
1021
1021
1021
1021
1021
1021
1021
1021
1021
1021
1021
1021
1021
1021
1021
1021
1021
1021
1021
1021
1021
1021
1021
1021
1021
1021
1021
1021
1021
1021
1021
1021
1021
1021
1021
1021
1021
1021
1021
1021
1021
1021
1021
1021
1021
1021
1021
1021
1021
1021
1021
1021
1021
1021
1021
1021
1021
1021
1021
1021
1021
1021
1021
1021
1021
1021
1021
1021
1021
1021
1021
1021
1021
1021
1021
1021
1021
1021
1021
1021
1021
1021
1021
1021
1021
1021
1021
1021
1021
1021
1021
1021
0
0
0
0
0
0
0
0
0
0
0
0
0
0
0
0
0
0
0
0
0
0
0
0
0
0
0
0
0
0
0
0
0
0
0
0
0
0
0
0
0
0
0
0
0
0
0
0
0
0
0
0
0
0
0
0
0
0
0
0
0
0
0
0
0
0
0
0
0
0
0
0
0
0
0
0
0
0
0
0
0
0
0
0
0
0
0
0
0
0
0
0
0
0
0
0
0
0
0
0
0
0
0
0
0
0
0
0
0
0
0
0
0
0
0
0
0
0
0
0
0
0
0
0
0
0
0
0
0
0
0
0
0
0
0
0
0
0
0
0
0
0
0
0
0
0
0
0
0
0
0
0
0
0
0
0
0
0
0
0
0
0
0
0
0
0
0
0
0
0
0
0
0
0
0
0
0
0
0
0
0
0
0
0
0
0
0
0
0
0
0
0
0
0
0
0
0
0
0
0
0
0
0
0
0
0
0
0
0
0
0
0
0
0
0
8
0
0
7
15
0
0
0
0
24
28
0
0
0
0
0
0
0
0
0
0
0
0
0
0
6
25
89
43
14
24
0
0
0
0
19
0
0
0
22
30
22
30
0
0
0
30
121
0
105
180
195
189
184
233
308
304
375
420
375
344
384
347
408
348
348
366
295
281
280
271
359
408
352
467
480
545
511
564
660
704
704
655
611
588
556
467
547
528
451
444
366
332
353
385
356
380
350
252
364
340
294
307
302
359
310
368
364
294
252
280
331
455
390
344
419
379
305
312
211
153
67
334
249
142
188
191
159
179
145
182
220
144
212
233
243
319
348
293
377
448
423
440
462
487
467
480
492
455
545
615
614
638
691
681
551
561
536
551
505
655
601
624
643
687
707
632
636
632
641
646
636
526
563
467
429
435
415
395
409
408
408
423
415
412
499
512
476
489
566
569
601
652
620
676
635
655
624
551
524
472
390
494
665
488
499
519
468
487
440
553
513
539
505
547
550
555
525
487
495
463
504
574
484
463
553
456
423
510
487
500
463
448
480
423
440
376
400
436
389
408
408
455
457
487
498
457
540
496
531
489
460
487
472
484
504
435
432
428
415
481
429
397
364
359
342
310
337
345
339
357
335
283
278
270
254
255
232
267
259
176
98
249
487
391
369
404
364
419
435
435
441
473
487
519
519
454
489
496
508
507
521
502
476
472
504
451
496
477
476
499
499
479
509
531
487
480
486
467
460
467
465
455
486
420
461
438
431
488
439
478
472
480
415
423
459
435
423
419
455
423
414
435
443
436
407
371
374
399
398
431
413
415
460
412
387
440
438
404
340
253
248
477
457
390
444
459
415
425
440
419
446
460
446
439
431
415
414
408
404
413
372
388
390
352
352
377
339
384
400
411
399
399
385
403
451
421
441
409
376
412
440
415
415
423
411
399
440
401
422
428
428
444
460
411
432
423
435
428
427
403
433
433
455
440
430
463
435
425
423
428
303
243
351
524
483
455
380
473
463
449
472
412
424
393
388
415
431
412
432
385
380
403
395
422
415
376
395
387
383
428
388
384
400
365
381
408
353
403
380
376
381
335
350
364
398
451
436
478
501
444
487
487
463
487
468
454
465
451
382
415
425
446
444
428
472
455
443
476
465
428
332
236
340
542
505
467
463
444
476
448
434
470
432
412
423
441
438
438
440
432
424
448
463
438
476
460
455
496
498
527
527
579
577
595
588
556
543
547
487
435
374
329
272
308
291
353
366
382
440
455
433
527
468
444
454
432
419
372
329
356
332
289
257
311
331
295
331
321
398
457
487
504
519
534
534
572
536
440
323
361
575
595
512
508
499
480
460
440
383
387
361
358
348
332
327
311
273
228
303
267
255
260
246
230
264
252
302
332
356
384
441
471
444
470
549
523
508
551
547
566
588
593
583
636
568
583
583
600
587
575
524
536
451
481
551
494
499
457
491
504
510
511
472
457
463
497
451
433
460
460
423
435
460
436
376
273
332
560
518
480
532
496
500
515
534
524
511
443
384
418
403
433
455
460
488
460
459
425
396
438
396
391
359
340
327
327
390
391
366
367
359
350
384
393
390
409
455
452
447
463
455
460
472
463
467
487
462
422
472
419
431
384
361
380
391
353
384
348
329
351
406
432
402
337
271
231
476
464
358
368
382
364
339
341
422
432
470
481
473
540
519
527
518
504
519
479
496
480
511
478
472
487
496
523
448
431
478
499
461
462
468
439
415
463
473
420
448
408
467
453
438
457
480
497
499
524
507
463
483
451
524
542
563
555
600
579
612
585
580
558
443
296
129
319
379
300
295
364
384
401
515
484
480
455
422
411
377
315
313
303
307
300
286
277
332
302
321
364
376
398
465
499
524
604
583
608
630
633
600
639
639
575
577
583
513
515
507
491
472
455
448
430
419
374
367
462
438
430
425
443
425
432
380
312
262
279
300
307
288
281
296
363
407
436
432
369
350
340
588
611
534
547
519
505
480
452
423
462
436
432
406
425
417
408
423
409
403
411
417
391
419
433
448
472
460
480
497
480
489
498
472
502
457
476
487
463
441
476
440
444
448
419
411
412
441
431
463
457
465
448
483
496
531
480
447
478
473
467
495
427
462
475
483
468
509
511
536
547
537
499
499
499
478
499
503
500
523
440
457
428
432
428
430
401
364
252
323
551
457
428
483
467
455
476
480
487
481
457
494
454
423
434
446
483
440
435
425
459
432
489
444
433
473
466
480
471
513
494
515
523
579
494
515
527
508
539
527
537
575
534
518
492
455
412
399
387
343
283
288
268
232
213
220
244
195
199
263
224
255
281
332
339
364
367
414
432
407
396
406
396
435
483
476
487
499
502
500
477
470
428
332
508
620
524
532
545
524
547
575
572
583
551
558
591
564
579
566
615
591
575
583
547
529
519
511
515
519
521
512
495
483
473
439
462
451
450
468
430
431
424
408
432
430
432
433
428
440
406
473
459
480
465
433
480
454
417
438
463
476
487
465
496
482
435
470
480
454
454
448
457
417
396
440
384
294
243
390
515
464
433
415
440
399
435
459
412
404
446
468
451
435
499
481
465
448
470
403
438
432
408
417
451
473
483
471
451
462
454
419
406
391
371
393
369
374
406
377
415
441
403
423
390
409
396
432
476
508
537
551
569
542
529
495
472
423
397
388
370
403
411
472
467
487
496
478
460
483
475
455
439
321
249
527
551
459
433
403
409
423
421
412
425
467
457
423
487
455
409
432
463
465
526
487
486
505
483
510
537
584
581
604
614
610
582
547
505
476
417
377
380
388
327
387
363
380
364
332
316
255
251
183
209
239
262
275
270
286
313
284
300
336
408
446
440
465
534
577
519
569
531
529
575
537
494
536
438
353
575
678
540
540
515
494
427
430
425
448
423
419
463
440
432
415
388
377
364
395
414
433
408
448
432
417
396
408
409
399
364
431
436
476
499
508
536
524
482
538
524
500
499
486
480
472
449
462
429
407
415
340
435
412
376
384
393
390
369
440
455
454
476
435
440
497
467
455
396
359
316
428
593
513
582
583
575
615
623
625
644
575
540
527
484
462
465
462
472
478
454
432
374
339
295
249
228
201
174
199
199
215
237
275
286
359
347
363
364
430
423
451
496
497
478
532
531
536
548
575
511
536
591
532
519
512
496
519
519
516
524
588
534
521
587
513
563
527
502
514
448
408
401
291
216
348
499
406
411
412
415
396
390
331
315
369
365
391
399
435
448
414
430
415
419
432
429
399
423
446
428
463
480
466
491
452
462
502
478
489
492
465
422
436
456
424
471
488
492
449
463
472
492
486
512
504
507
533
542
520
591
551
534
504
512
486
451
448
422
384
384
376
380
384
366
366
359
316
348
352
336
265
148
145
403
374
316
308
